Samples
-421,1609
-437,87842
-439,18762
-442,6117
-439,18762
-450,97046
-459,0271
-461,94763
-661,3495
7,1502686
4,1290283
-3,4240723
-2,4169922
-14,501953
-421,1609
-437,87842
-439,18762
-442,6117
-439,18762
-450,97046
-459,0271
-461,94763
-661,3495
-1110,3058
-1352,9114
-1483,429
-1528,3447
-1525,4242
-1360,6659
-1289,9689
-1210,2081
-1131,7566
-1057,7362
3144,406
1847,5891
-982,91016
-915,03296
-844,63806
-784,01184
-732,34863
-680,1819
-640,80505
-517,53845
-493,36853
-463,35754
-444,32373
-418,13965
3144,3054
1746,4783
-399,8108
-376,74866
-361,44104
-344,5221
-341,19873
-334,14917
-323,77625
-300,6134
-296,08154
-293,161
-292,55676
-292,9596
3144,3054
1744,867
-290,3412
-290,3412
-292,15393
-293,36243
-286,9171
-287,62207
-278,15552
-264,0564
-260,2295
-256,10046
-244,92188
-235,35461
3144,3054
1778,302
-229,21143
-223,7732
-216,42151
-205,0415
-195,27283
-192,05017
-189,12964
-164,7583
-161,0321
-169,59229
-169,693
-162,54272
3144,3054
1752,9236
-164,25476
-168,38379
-167,276
-174,7284
-177,44751
-187,21619
-183,5907
-197,89124
-204,9408
-213,50098
-222,26257
-237,97302
3144,3054
1771,8567
-247,33887
-265,2649
-273,0194
-276,94702
-271,91162
-261,33728
-257,8125
-248,04382
-232,23267
-216,82434
-214,50806
-205,54504
3144,3054
1746,4783
-200,40894
-194,36646
-186,81335
-185,50415
-176,94397
-179,15955
-181,37512
-172,61353
-176,94397
-176,64185
-183,48999
-186,81335
3144,3054
1752,9236
-189,63318
-197,08557
-194,76929
-209,37195
-207,5592
-204,03442
-210,58044
-227,80151
-234,04541
-227,49939
-233,44116
-227,09656
3144,3054
1746,4783
-228,70789
-232,7362
-226,79443
-231,12488
-231,52771
-230,31921
-231,22559
-173,92273
-170,80078
-163,04626
-159,42078
-162,64343
-160,9314
-157,30591
-168,4845
-165,36255
-164,95972
-178,85742
-183,38928
-180,26733
-184,49707
-190,03601
-196,2799
-200,0061
-187,21619
-191,84875
-195,37354
-204,13513
-207,35779
-213,60168
-211,08398
-215,21301
-216,62292
-217,22717
-222,6654
-223,26965
-221,96045
-225,58594
-225,88806
-228,10364
-225,0824
-215,31372
-203,22876
-198,7976
-186,61194
-183,28857
-178,35388
-171,90857
-154,88892
-146,53015
-143,91174
-145,42236
-146,32874
-150,75989
-151,46484
-148,54431
-153,57971
-155,49316
-165,86609
-163,04626
-172,10999
-174,42627
-184,8999
-177,64893
-179,66309
-183,18787
-192,05017
-197,99194
-201,41602
-202,32239
-208,16345
-210,47974
-205,64575
-207,05566
-213,8031
-209,9762
-208,06274
-208,06274
-210,68115
-203,02734
-207,65991
-196,88416
-183,38928
-173,72131
-166,26892
-164,35547
-159,01794
-153,88184
-147,53723
-136,86218
-137,96997
-136,15723
-136,45935
-137,86926
-142,099
-133,53882
-141,09192
-138,77563
-138,17139
-149,24927
-149,14856
-157,60803
-160,9314
-160,02502
-160,32715
-161,83777
-169,08875
-169,18945
-178,35388
-184,8999
-187,82043
-195,87708
-189,43176
-199,40186
-206,95496
-209,37195
-208,56628
-208,46558
-209,67407
-212,4939
-204,9408
-191,04309
-172,61353
-155,39246
-145,01953
-123,16589
-117,42554
-113,59863
-109,26819
-96,98181
-97,283936
-90,737915
-87,91809
-92,95349
-95,87402
-106,14624
-106,04553
-107,455444
-119,84253
-124,67651
-129,00696
-132,43103
-146,32874
-141,59546
-139,17847
-142,40112
-149,14856
-155,59387
-161,33423
-163,85193
-165,16113
-156,39954
-160,12573
-164,6576
-163,65051
-165,86609
-162,03918
-166,26892
-171,1029
-170,39795
-158,21228
-145,62378
-142,1997
-136,25793
-125,582886
-123,16589
-116,922
-111,68518
-104,63562
-101,815796
-93,0542
-91,04004
-90,83862
-80,4657
-74,72534
-73,11401
-74,72534
-79,660034
-71,60339
-82,47986
-85,702515
-97,58606
-129,20837
-137,36572
-153,17688
-163,4491
-162,44202
-161,53564
-163,5498
-164,05334
-166,26892
-170,09583
-164,05334
-170,49866
-169,89441
-160,32715
-168,38379
-161,43494
-151,26343
-150,55847
-144,01245
-138,87634
-126,48926
-117,526245
-108,76465
-108,05969
-98,794556
-100,20447
-89,227295
-89,52942
-69,89136
-67,17224
-65,963745
-64,75525
-72,006226
-71,09985
-77,34375
-84,2926
-87,716675
-84,99756
-91,04004
-92,44995
-100,808716
-95,97473
-101,01013
-104,23279
-114,30359
-121,75598
-121,9574
-127,597046
-130,21545
-126,690674
-125,98572
-126,48926
-129,81262
-133,94165
-135,35156
-131,42395
-133,43811
-135,25085
-131,92749
-118,33191
-110,980225
-106,8512
-96,780396
-89,227295
-82,78198
-72,509766
-76,23596
-63,546753
-55,59082
-56,69861
-55,892944
-57,10144
-53,878784
-60,72693
-67,977905
-65,76233
-68,78357
-70,19348
-74,12109
-79,45862
-86,40747
-85,09827
-85,60181
-93,15491
-99,3988
-100,00305
-112,18872
-116,519165
-114,20288
-117,72766
-122,66235
-119,84253
-120,14465
-124,97864
-120,14465
-117,32483
-127,89917
-130,41687
-120,34607
-110,6781
-101,21155
-91,14075
-86,30676
-82,88269
-73,516846
-64,75525
-64,35242
-60,525513
-49,850464
-43,807983
-43,807983
-44,110107
-41,290283
-47,735596
-49,0448
-55,792236
-57,20215
-57,806396
-56,19507
-58,61206
-70,09277
-73,013306
-73,91968
-93,65845
-109,973145
-111,78589
-119,540405
-115,31067
-118,93616
-121,25244
-122,86377
-124,072266
-118,63403
-105,23987
-103,22571
-99,60022
-101,412964
-99,19739
-97,38464
-92,55066
-83,58765
-74,82605
-67,977905
-67,8772
-57,907104
-50,454712
-46,627808
-39,779663
-35,95276
-39,074707
-38,269043
-38,067627
-39,074707
-37,161255
-47,836304
-42,800903
-51,864624
-51,663208
-57,70569
-63,345337
-72,9126
-75,027466
-71,80481
-73,71826
-82,07703
-87,41455
-99,70093
-99,09668
-103,62854
-103,62854
-108,56323
-109,57031
-112,69226
-104,03137
-102,420044
-105,6427
-110,17456
-102,62146
-89,93225
-80,06287
-64,453125
-56,900024
-48,641968
-33,032227
-29,30603
-25,076294
-20,443726
-12,890625
-5,9417725
0,70495605
4,6325684
-3,6254883
-8,358765
-7,3516846
-13,796997
-23,867798
-29,80957
-34,039307
-39,98108
-43,50586
-49,54834
-52,972412
-58,914185
-78,149414
-100,50659
-112,69226
-115,512085
-112,59155
-103,829956
-102,319336
-101,815796
-98,99597
-94,56482
-96,57898
-93,55774
-94,3634
-91,64429
-91,04004
-81,87561
-73,31543
-62,438965
-55,59082
-51,864624
-47,634888
-47,03064
-44,110107
-44,210815
-41,592407
-36,053467
-24,169922
-23,062134
-15,408325
-22,76001
-23,76709
-19,638062
-23,26355
-31,118774
-41,693115
-41,793823
-44,210815
-48,339844
-51,05896
-43,807983
-46,325684
-54,58374
-61,029053
-70,79773
-80,96924
-78,552246
-78,552246
-85,40039
-81,87561
-77,545166
-81,27136
-85,5011
-68,07861
-72,61047
-72,30835
-73,21472
-67,07153
-60,62622
-50,253296
-39,88037
-39,175415
-30,413818
-28,198242
-33,032227
-12,991333
-5,2368164
-5,1361084
-4,3304443
-13,293457
-19,839478
-17,422485
-21,652222
-21,652222
-28,29895
-22,25647
-44,815063
-47,232056
-47,232056
-42,700195
-46,5271
-55,69153
-59,317017
-70,69702
-80,163574
-80,06287
-78,35083
-69,79065
-71,60339
-71,80481
-72,30835
-69,1864
-70,19348
-82,27844
-67,17224
-67,27295
-66,36658
-54,281616
-37,96692
-35,95276
-33,233643
-26,28479
-16,616821
-12,387085
-17,019653
-8,660889
-11,480713
-11,178589
-5,8410645
-14,401245
-17,019653
-20,343018
-17,120361
-15,911865
-20,846558
-22,457886
-24,069214
-35,95276
-39,175415
-35,147095
-35,95276
-41,290283
-45,41931
-67,67578
-50,756836
-61,6333
-64,75525
-68,68286
-72,30835
-78,048706
-76,034546
-73,91968
-75,027466
-74,32251
-71,502686
-69,38782
-79,2572
-63,14392
-53,778076
-38,571167
-36,557007
-32,32727
-29,608154
-18,630981
-14,904785
1,7120361
0,9063721
4,1290283
-1,7120361
-4,0283203
-8,358765
-11,581421
-21,853638
-20,443726
-24,472046
-28,097534
-29,910278
-36,557007
-34,44214
-26,78833
-15,509033
-16,21399
-25,881958
-39,678955
-39,578247
-50,253296
-51,763916
-58,813477
-57,806396
-57,000732
-54,281616
-59,317017
-62,13684
-64,35242
-66,970825
-62,13684
-63,043213
-50,454712
-46,728516
-24,673462
-34,94568
-24,371338
-16,012573
-7,9559326
-5,6396484
2,6184082
1,8127441
3,3233643
7,0495605
9,869385
13,595581
10,775757
2,6184082
6,6467285
-4,5318604
-7,4523926
-13,595581
-15,005493
-30,715942
-23,26355
-20,846558
-28,701782
-31,018066
-39,37683
-46,627808
-57,403564
-59,21631
-63,546753
-63,74817
-65,86304
-65,460205
-68,17932
-71,80481
-70,3949
-74,42322
-63,446045
-57,20215
-47,03064
-30,31311
-24,069214
-22,457886
-18,026733
-4,7332764
-4,9346924
1,1077881
1,1077881
1,1077881
1,1077881
1,1077881
1,1077881
1,1077881
1,1077881
1,1077881
1,1077881
1,1077881
1,1077881
1,1077881
1,1077881
1,1077881
-21,954346
-26,687622
-35,549927
-40,786743
-46,224976
-51,361084
-57,504272
-59,21631
-57,302856
-53,475952
-57,000732
-59,1156
-62,338257
-60,22339
-55,892944
-62,64038
-57,403564
-54,986572
-41,4917
-26,889038
-22,860718
-16,818237
-9,063721
-4,3304443
5,9417725
5,3375244
14,199829
17,422485
4,2297363
17,926025
5,9417725
9,063721
6,9488525
3,3233643
3,5247803
-8,963013
-8,862305
-16,113281
-22,25647
-26,687622
-22,357178
-25,680542
-26,486206
-30,615234
-32,730103
-44,41223
-55,08728
-55,18799
-50,454712
-53,07312
-55,490112
-64,85596
-61,532593
-57,70569
-53,878784
-55,389404
-55,69153
-50,857544
-43,807983
-31,32019
-14,804077
-9,466553
-6,5460205
-1,3092041
0,50354004
5,6396484
11,380005
12,991333
12,991333
9,164429
13,796997
6,1431885
12,991333
8,056641
-0,40283203
-7,9559326
-17,019653
-19,033813
-23,666382
-25,78125
-21,853638
-16,818237
-26,083374
-19,940186
-27,694702
-33,9386
-44,0094
-46,627808
-41,088867
-45,92285
-47,332764
-51,5625
-52,670288
-52,468872
-54,281616
-57,70569
-51,763916
-45,822144
-40,98816
-26,083374
-24,572754
-18,73169
-11,178589
3,3233643
10,977173
15,609741
23,26355
23,666382
20,141602
28,097534
32,226562
18,328857
21,652222
15,206909
9,869385
8,157349
6,2438965
-4,1290283
-11,984253
-13,796997
-11,883545
-18,630981
-24,975586
-23,867798
-28,500366
-37,96692
-43,40515
-46,02356
-44,91577
-44,41223
-44,613647
-45,52002
-45,721436
-47,232056
-47,836304
-56,396484
-45,92285
-51,260376
-38,974
-26,083374
-20,74585
-16,818237
-8,862305
-0,9063721
7,1502686
17,72461
17,019653
24,069214
20,443726
24,371338
21,24939
19,335938
20,443726
7,8552246
7,7545166
6,1431885
10,473633
-2,4169922
-0,50354004
-12,084961
-10,775757
-10,977173
-16,71753
-26,184082
-26,385498
-36,4563
-45,01648
-42,39807
-42,39807
-37,564087
-39,678955
-54,281616
-51,5625
-49,95117
-53,375244
-48,339844
-53,475952
-48,239136
-38,974
-27,090454
-13,796997
-16,113281
-12,387085
-5,0354004
1,3092041
2,2155762
7,2509766
11,883545
25,378418
28,29895
34,140015
27,896118
29,507446
36,4563
21,853638
15,710449
22,76001
15,408325
15,408325
0,9063721
-0,10070801
4,5318604
-11,077881
-25,579834
-28,097534
-38,36975
-41,290283
-38,168335
-41,39099
-49,0448
-50,756836
-48,94409
-49,850464
-50,857544
-57,504272
-52,267456
-57,10144
-51,763916
-37,765503
-34,240723
-25,378418
-26,486206
-13,494873
-18,933105
-6,2438965
0,70495605
-0,10070801
4,8339844
15,307617
15,206909
13,494873
10,372925
13,394165
5,5389404
0,60424805
8,459473
7,3516846
5,5389404
2,5177002
-0,60424805
10,775757
5,3375244
3,7261963
-6,6467285
-16,314697
-26,687622
-35,34851
-29,104614
-29,608154
-35,751343
-43,00232
-48,54126
-52,468872
-46,02356
-47,232056
-52,56958
-47,735596
-52,770996
-43,203735
-25,881958
-18,026733
-12,487793
-7,5531006
1,1077881
5,9417725
9,970093
13,595581
22,055054
24,673462
17,72461
18,832397
18,22815
19,033813
16,415405
10,372925
7,4523926
3,9276123
0,30212402
2,3162842
-0,40283203
4,5318604
-6,2438965
-9,164429
-12,789917
-20,645142
-24,472046
-31,82373
-37,765503
-37,36267
-33,636475
-36,657715
-34,94568
-40,38391
-41,39099
-45,41931
-45,721436
-43,807983
-47,53418
-28,601074
-14,904785
-5,7403564
-2,2155762
2,9205322
7,8552246
9,869385
20,645142
25,881958
29,910278
27,593994
28,097534
22,860718
24,874878
19,436646
22,357178
17,825317
14,501953
10,171509
5,8410645
1,2084961
-1,1077881
-2,6184082
-7,9559326
-11,279297
-17,422485
-23,968506
-22,860718
-33,132935
-34,84497
-40,786743
-43,203735
-43,304443
-47,131348
-44,110107
-49,246216
-45,117188
-38,168335
-38,671875
-34,542847
-23,26355
-7,1502686
0,10070801
-0,20141602
4,8339844
12,084961
18,530273
28,500366
30,81665
30,111694
29,30603
20,544434
33,33435
31,118774
23,062134
16,415405
25,881958
17,825317
6,4453125
7,1502686
-2,0141602
-8,056641
-9,970093
-3,6254883
-11,178589
-23,364258
-18,127441
-33,132935
-35,247803
-44,210815
-40,88745
-45,01648
-47,53418
-46,627808
-46,5271
-53,07312
-55,490112
-51,763916
-51,159668
-52,468872
-34,44214
-13,192749
-12,185669
-7,3516846
-4,8339844
5,3375244
12,387085
16,516113
22,055054
31,723022
39,175415
44,210815
44,0094
39,678955
40,98816
36,154175
17,623901
8,560181
15,811157
13,394165
2,8198242
-1,1077881
1,3092041
-3,1219482
-10,977173
-17,22107
-25,78125
-33,233643
-36,85913
-34,240723
-44,613647
-43,40515
-38,067627
-41,89453
-38,974
-42,700195
-37,96692
-34,744263
-41,189575
-35,147095
-21,350098
-6,4453125
-1,7120361
4,6325684
12,588501
17,120361
13,394165
23,162842
28,500366
26,184082
27,493286
26,486206
29,003906
31,219482
34,643555
23,968506
18,630981
15,609741
18,22815
12,991333
7,4523926
2,8198242
0,30212402
-12,991333
-13,192749
-15,609741
-22,055054
-30,615234
-30,212402
-36,254883
-35,751343
-39,175415
-36,557007
-40,98816
-43,807983
-44,110107
-46,224976
-48,94409
-48,03772
-42,800903
-38,974
-21,75293
-8,761597
-6,7474365
0,70495605
6,5460205
15,005493
17,523193
24,572754
29,708862
38,772583
40,88745
39,678955
34,643555
31,32019
25,27771
27,493286
28,500366
25,479126
17,019653
10,675049
3,0212402
-3,3233643
-0,50354004
-2,7191162
-16,616821
-18,832397
-21,652222
-26,889038
-36,4563
-35,34851
-31,219482
-34,34143
-38,269043
-43,707275
-58,511353
-41,4917
-39,779663
-41,99524
-39,276123
-26,083374
-7,8552246
0,9063721
9,667969
8,761597
16,415405
23,364258
25,680542
32,42798
29,507446
30,715942
30,010986
28,701782
21,24939
19,73877
16,21399
15,911865
4,4311523
2,3162842
2,1148682
-9,869385
-17,120361
-19,134521
-17,926025
-27,694702
-31,018066
-38,87329
-40,786743
-44,613647
-41,793823
-46,42639
-38,671875
-21,24939
-20,645142
-24,874878
-22,76001
-20,846558
-19,335938
-26,083374
-18,22815
-9,567261
13,998413
15,911865
13,897705
16,21399
23,364258
24,874878
21,450806
34,34143
35,549927
39,175415
40,786743
28,601074
17,523193
5,8410645
-6,8481445
-8,157349
-10,775757
-16,012573
-21,450806
-28,500366
-30,31311
-26,486206
-20,544434
-22,860718
-27,593994
-33,535767
-33,43506
-40,786743
-42,095947
-39,779663
-44,0094
-42,49878
-43,50586
-44,210815
-34,240723
-34,34143
-27,694702
-29,507446
-21,652222
-8,963013
8,258057
12,185669
18,026733
21,652222
24,572754
33,33435
34,039307
30,31311
31,723022
34,94568
34,744263
27,593994
27,694702
24,874878
15,911865
16,314697
15,206909
10,977173
7,3516846
5,8410645
-3,1219482
-3,3233643
-9,164429
-13,595581
-26,486206
-31,622314
-33,33435
-37,765503
-45,822144
-45,620728
-46,42639
-41,189575
-41,693115
-44,91577
-42,700195
-40,585327
-35,549927
-35,95276
-38,571167
-23,26355
-9,063721
-7,2509766
8,963013
3,9276123
9,768677
13,595581
11,984253
23,968506
37,161255
33,9386
33,9386
31,521606
31,924438
35,147095
30,81665
19,033813
20,24231
15,206909
23,162842
5,9417725
-3,1219482
-5,1361084
-7,6538086
-12,185669
-17,623901
-26,889038
-28,80249
-39,88037
-42,800903
-46,42639
-43,807983
-50,253296
-50,253296
-58,10852
-65,86304
-60,22339
-64,35242
-68,78357
-53,375244
-49,54834
-33,33435
-22,860718
-12,789917
9,567261
25,479126
33,132935
37,664795
42,095947
37,96692
41,592407
38,87329
49,95117
56,900024
55,490112
47,131348
7,5531006
-19,23523
-32,125854
-41,39099
-39,578247
-48,339844
-42,800903
-48,843384
-50,454712
-56,295776
-51,5625
-51,05896
-31,82373
-14,602661
10,675049
30,111694
10,876465
-19,537354
-43,304443
-57,504272
-52,770996
-42,90161
-32,93152
-18,530273
-12,185669
-14,199829
-9,768677
-9,970093
8,761597
18,22815
28,097534
36,85913
47,03064
59,317017
58,813477
55,892944
60,928345
65,66162
53,375244
42,90161
31,622314
27,996826
14,602661
25,378418
29,003906
36,557007
26,889038
11,984253
0,9063721
-7,3516846
-12,588501
-19,73877
-25,881958
-34,744263
-34,744263
-36,758423
-34,140015
-24,874878
-8,963013
3,4240723
-5,7403564
-36,4563
-69,89136
-89,83154
-74,82605
-49,246216
-24,472046
-2,6184082
12,588501
23,26355
18,22815
27,392578
31,924438
30,413818
31,82373
26,989746
28,29895
26,486206
20,343018
23,76709
18,832397
27,29187
14,199829
12,588501
3,2226562
-1,9134521
-2,3162842
-1,7120361
-3,5247803
-9,567261
-16,314697
-26,28479
-28,29895
-28,500366
-35,34851
-33,636475
-43,203735
-37,765503
-43,50586
-41,99524
-43,40515
-41,189575
-39,98108
-32,125854
-28,097534
-17,22107
-13,192749
-6,7474365
-3,5247803
1,9134521
5,9417725
12,588501
16,314697
12,185669
19,23523
19,033813
10,876465
14,602661
19,436646
21,853638
17,523193
26,083374
20,443726
15,811157
9,768677
4,9346924
9,869385
6,5460205
15,609741
13,595581
4,9346924
-9,265137
-23,062134
-34,140015
-23,162842
-28,903198
-29,507446
-33,032227
-36,154175
-36,557007
-35,95276
-30,111694
-20,645142
-23,867798
-11,279297
-4,5318604
1,1077881
4,8339844
12,991333
15,408325
19,23523
21,450806
29,104614
31,521606
34,039307
28,500366
27,090454
28,399658
23,062134
17,422485
12,689209
10,272217
11,984253
8,761597
2,2155762
2,9205322
6,7474365
5,8410645
2,5177002
0,9063721
-2,9205322
-7,9559326
-25,680542
-35,95276
-28,80249
-34,84497
-36,254883
-42,49878
-36,95984
-40,585327
-46,728516
-45,318604
-31,521606
-15,609741
-3,4240723
6,4453125
13,293457
22,25647
24,874878
29,30603
22,659302
32,528687
34,44214
39,98108
37,765503
35,44922
30,111694
27,191162
22,357178
18,630981
16,314697
8,358765
15,811157
0,70495605
-1,2084961
-8,963013
-17,623901
-24,572754
-13,796997
-33,132935
-42,095947
-50,55542
-63,14392
-58,813477
-54,0802
-44,613647
-45,92285
-34,84497
-25,680542
-24,975586
-17,22107
-23,26355
-16,314697
-17,926025
4,2297363
19,537354
18,832397
29,910278
27,493286
33,737183
39,578247
32,730103
30,715942
37,46338
31,018066
38,067627
31,723022
31,219482
32,32727
21,75293
13,092041
10,372925
5,5389404
6,6467285
6,2438965
0,9063721
-1,2084961
-3,6254883
-8,660889
-11,782837
-20,24231
-29,507446
-43,50586
-48,03772
-50,857544
-48,239136
-52,468872
-51,864624
-51,159668
-50,857544
-51,260376
-49,649048
-49,44763
-41,088867
-29,205322
-18,127441
-7,7545166
-2,5177002
1,7120361
14,804077
24,874878
32,32727
33,233643
42,599487
43,807983
51,260376
52,468872
43,606567
37,46338
33,737183
35,751343
29,708862
25,177002
22,055054
12,890625
6,1431885
10,372925
1,8127441
-3,1219482
-12,185669
-19,23523
-23,968506
-28,601074
-32,528687
-33,032227
-33,535767
-37,261963
-37,765503
-39,779663
-35,85205
-28,903198
-26,78833
-26,889038
-19,134521
-4,4311523
7,5531006
14,602661
4,0283203
14,099121
19,537354
20,645142
26,486206
34,542847
40,786743
40,48462
34,542847
30,31311
17,926025
2,1148682
-11,178589
-10,675049
-5,6396484
1,7120361
3,2226562
-4,8339844
-6,0424805
-2,9205322
-12,387085
-9,164429
-13,796997
-24,472046
-33,43506
-42,90161
-38,36975
-34,84497
-34,643555
-44,0094
-38,87329
-39,578247
-34,140015
-36,557007
-37,86621
-34,140015
-25,982666
-14,401245
-8,660889
-6,5460205
3,6254883
8,761597
15,408325
14,199829
23,26355
23,062134
21,75293
27,79541
23,26355
22,76001
21,652222
22,76001
18,026733
15,811157
8,761597
4,2297363
1,4099121
-2,7191162
4,2297363
5,8410645
-1,2084961
-9,567261
-15,106201
-19,638062
-25,076294
-26,083374
-33,132935
-35,34851
-40,98816
-36,154175
-26,486206
-27,29187
-15,005493
-18,630981
-17,422485
-20,544434
-19,940186
-6,4453125
0
2,2155762
15,609741
8,459473
16,71753
24,874878
26,687622
27,896118
33,83789
34,240723
37,96692
29,910278
25,78125
20,24231
9,365845
15,408325
14,602661
7,7545166
8,560181
-2,0141602
-4,6325684
-3,3233643
-12,789917
-14,199829
-18,73169
-24,371338
-30,615234
-36,35559
-41,793823
-44,0094
-46,627808
-48,239136
-46,02356
-47,43347
-47,43347
-44,714355
-41,693115
-41,89453
-31,118774
-11,480713
-2,4169922
1,9134521
8,157349
9,869385
18,832397
26,083374
29,80957
28,903198
34,84497
34,84497
41,693115
38,671875
32,83081
31,723022
22,25647
17,422485
6,9488525
1,4099121
2,4169922
-2,3162842
-15,710449
-13,394165
-23,162842
-30,31311
-35,147095
-50,656128
-45,318604
-48,239136
-56,900024
-60,525513
-69,992065
-62,13684
-54,483032
-50,55542
-44,110107
-37,765503
-39,074707
-36,557007
-24,069214
-21,24939
-0,10070801
16,918945
30,413818
46,02356
47,634888
38,168335
40,786743
45,721436
60,22339
44,815063
54,58374
48,641968
46,42639
45,41931
46,325684
32,32727
31,521606
21,450806
14,703369
10,372925
0
-7,3516846
-13,192749
-35,85205
-57,302856
-55,792236
-53,67737
-45,318604
-43,203735
-39,578247
-32,730103
-36,254883
-37,765503
-31,924438
-39,779663
-49,145508
-21,853638
-44,815063
-46,02356
-29,30603
-18,429565
-0,60424805
4,1290283
10,977173
16,616821
29,507446
41,290283
40,081787
44,51294
36,154175
38,87329
40,98816
31,723022
35,549927
49,649048
49,54834
52,06604
68,17932
76,43738
61,6333
52,267456
36,557007
11,581421
-11,279297
-44,91577
-74,12109
-104,837036
-119,13757
-108,86536
-115,10925
-121,051025
-116,31775
-112,39014
-94,16199
-67,07153
-43,707275
-26,586914
-17,22107
-8,258057
25,579834
58,309937
88,0188
99,3988
109,06677
118,2312
122,46094
123,2666
126,690674
131,22253
125,18005
97,08252
53,67737
30,111694
11,380005
12,084961
-15,106201
-39,37683
-107,75757
-165,06042
-190,74097
-161,63635
-74,92676
-9,970093
-42,196655
-106,04553
-152,67334
-175,23193
-173,41919
-177,95105
-197,08557
-230,31921
-240,59143
-238,17444
-221,85974
-202,4231
-171,70715
-129,40979
-75,531006
4,1290283
80,96924
132,22961
158,4137
177,54822
168,28308
152,06909
168,98804
232,03125
262,8479
245,12329
204,53796
181,67725
165,76538
157,00378
135,8551
104,837036
67,17224
45,318604
18,630981
13,293457
35,147095
50,454712
63,345337
77,24304
74,32251
59,921265
46,5271
51,663208
27,090454
10,574341
1,4099121
-7,7545166
2,9205322
0,70495605
-9,667969
-17,22107
-12,185669
11,682129
20,443726
4,4311523
20,343018
51,159668
21,551514
-38,87329
-70,79773
-73,31543
-70,495605
-63,14392
-48,94409
-14,199829
19,940186
33,83789
55,490112
63,24463
47,93701
30,715942
4,9346924
-11,782837
-18,530273
-21,450806
-27,191162
-38,47046
-41,592407
-45,52002
-52,770996
-66,970825
-71,80481
-54,785156
-20,544434
2,5177002
-8,963013
-76,94092
-92,95349
-101,51367
-92,95349
-112,59155
-130,21545
-156,19812
-166,16821
-162,84485
-153,17688
-154,88892
-139,682
-120,043945
-89,730835
-60,928345
-70,29419
-77,645874
-62,841797
-25,579834
-4,1290283
25,479126
68,984985
108,56323
125,079346
133,74023
140,8905
138,2721
132,83386
105,6427
88,92517
63,848877
32,93152
14,300537
17,523193
9,768677
8,157349
2,7191162
-11,077881
-47,836304
-84,695435
-96,37756
-89,227295
-69,58923
-31,420898
46,124268
152,77405
193,35938
225,78735
271,20667
308,77075
309,4757
266,7755
199,30115
115,81421
37,564087
-8,660889
-41,793823
-54,986572
-35,751343
-10,876465
-10,876465
-48,138428
-103,22571
-141,49475
-151,06201
-160,83069
-160,02502
-154,48608
-134,74731
-123,16589
-118,73474
-104,63562
-98,0896
-70,3949
-41,39099
-25,27771
-12,689209
-20,947266
-39,678955
-52,56958
-66,36658
-52,56958
-29,608154
-30,615234
-39,98108
-39,37683
-52,468872
-53,67737
-43,807983
-8,258057
30,212402
57,504272
89,63013
104,937744
88,52234
36,85913
-46,224976
-148,4436
-203,32947
-230,2185
-245,52612
-239,18152
-213,40027
-160,62927
-139,682
-130,21545
-100,40588
-25,177002
79,45862
149,6521
178,95813
181,57654
167,98096
156,80237
141,19263
135,55298
130,61829
144,31458
157,60803
135,7544
96,276855
60,62622
30,31311
-0,40283203
-18,026733
-37,564087
-45,01648
-31,219482
-2,5177002
28,29895
36,35559
48,339844
63,848877
72,61047
83,48694
80,76782
84,695435
72,61047
67,8772
62,64038
63,74817
58,20923
46,5271
38,772583
29,205322
35,95276
31,32019
35,44922
30,413818
21,652222
18,832397
7,3516846
2,4169922
-7,9559326
-12,286377
-22,457886
-40,48462
-50,656128
-52,468872
-54,68445
-58,914185
-58,914185
-71,90552
-73,61755
-59,21631
-57,403564
-62,64038
-63,74817
-58,309937
-48,339844
-37,664795
-40,585327
-30,31311
-17,623901
-2,1148682
21,047974
30,514526
41,290283
52,368164
72,40906
83,99048
87,716675
113,497925
136,05652
130,31616
123,2666
109,57031
95,16907
83,08411
52,871704
16,012573
-19,73877
-67,474365
-118,43262
-129,40979
-114,80713
-103,829956
-102,21863
-94,56482
-82,47986
-84,49402
-80,86853
-54,483032
-33,83789
-30,111694
-49,346924
-49,850464
-29,30603
-10,473633
10,775757
25,479126
25,076294
33,9386
37,564087
54,885864
66,56799
82,37915
71,20056
54,58374
32,226562
31,32019
36,254883
36,657715
35,147095
38,36975
46,829224
41,693115
36,154175
28,29895
25,27771
4,7332764
-4,8339844
-11,984253
-27,493286
-45,217896
-77,34375
-103,22571
-111,08093
-106,34766
-98,19031
-84,49402
-82,78198
-98,19031
-99,49951
-95,87402
-82,07703
-59,21631
-47,735596
-27,090454
-1,8127441
45,620728
76,135254
98,99597
121,35315
126,79138
113,39722
109,26819
101,01013
89,42871
69,89136
62,539673
52,267456
31,723022
2,3162842
-21,652222
-57,907104
-92,44995
-112,18872
-130,11475
-147,73865
-139,98413
-113,69934
-94,16199
-87,213135
-71,20056
-58,813477
-55,288696
-60,12268
-54,785156
-63,446045
-59,518433
-56,69861
-58,309937
-57,000732
-50,55542
-53,57666
-61,935425
-51,260376
-50,253296
-48,138428
-44,210815
-36,657715
-33,636475
-30,111694
-18,026733
-12,789917
-17,422485
-12,185669
-18,127441
-15,509033
-10,372925
-4,1290283
-3,3233643
1,3092041
10,171509
28,097534
15,206909
-3,9276123
-0,40283203
7,0495605
-4,3304443
-8,963013
-6,7474365
6,7474365
43,00232
41,99524
44,815063
35,34851
35,85205
34,84497
30,715942
25,881958
12,890625
13,092041
10,977173
10,372925
16,616821
9,164429
11,782837
24,77417
36,758423
31,924438
48,843384
58,71277
53,878784
49,145508
59,1156
63,345337
66,970825
65,460205
69,58923
69,68994
68,78357
64,05029
55,892944
53,57666
48,44055
38,36975
36,154175
28,29895
27,79541
30,31311
34,744263
30,615234
25,579834
19,23523
13,494873
18,328857
6,6467285
11,279297
9,466553
11,380005
1,3092041
5,6396484
11,581421
12,387085
2,3162842
8,157349
12,084961
19,436646
26,889038
23,76709
27,593994
37,96692
47,332764
55,490112
64,55383
60,525513
59,61914
59,014893
44,311523
41,99524
36,154175
32,42798
20,645142
16,818237
15,609741
7,7545166
-8,862305
-17,926025
-16,818237
-8,560181
-4,1290283
-1,9134521
-13,394165
-12,588501
-14,401245
-22,961426
-34,34143
-45,721436
-57,504272
-63,546753
-65,56091
-70,09277
-72,61047
-91,94641
-103,02429
-116,31775
-115,31067
-99,19739
-74,020386
-53,67737
-29,507446
-9,970093
-2,7191162
1,3092041
18,22815
34,94568
50,354004
66,56799
77,142334
90,93933
76,43738
70,69702
79,76074
77,84729
69,58923
56,295776
36,4563
12,588501
-0,30212402
2,6184082
-2,3162842
-17,422485
-21,853638
-23,162842
-33,33435
-31,521606
-38,47046
-36,85913
-43,40515
-46,325684
-47,131348
-52,56958
-45,92285
-45,721436
-50,857544
-50,756836
-44,110107
-29,406738
-20,24231
-17,523193
-5,6396484
-0,60424805
2,1148682
7,7545166
15,811157
25,177002
15,408325
24,27063
10,272217
18,429565
13,796997
20,040894
18,832397
12,387085
10,070801
7,2509766
5,2368164
-7,6538086
-7,9559326
-3,7261963
-13,897705
-21,24939
-18,832397
-27,090454
-29,910278
-38,772583
-47,836304
-45,92285
-55,69153
-60,525513
-59,317017
-54,68445
-56,09436
-48,339844
-53,778076
-55,288696
-51,965332
-32,025146
-29,30603
-14,703369
-14,199829
-6,9488525
0
0,70495605
1,7120361
-1,1077881
-2,8198242
-16,113281
-4,5318604
-11,480713
-7,5531006
-2,7191162
-6,2438965
-10,574341
-18,832397
-24,069214
-32,83081
-44,613647
-42,700195
-27,79541
-22,055054
-21,954346
-30,514526
-37,261963
-38,87329
-37,765503
-41,793823
-41,189575
-37,36267
-38,168335
-37,96692
-31,521606
-37,161255
-23,464966
-28,097534
-28,097534
-19,638062
1,2084961
7,4523926
6,2438965
5,3375244
5,1361084
13,796997
25,177002
25,177002
11,782837
17,019653
12,991333
13,998413
12,789917
10,272217
-1,0070801
-3,2226562
-6,9488525
-9,970093
-12,588501
-4,4311523
-6,6467285
-3,9276123
-6,1431885
-4,1290283
-7,2509766
-21,450806
-28,701782
-35,751343
-32,83081
-39,678955
-41,088867
-44,41223
-52,166748
-49,95117
-57,403564
-54,281616
-58,71277
-45,01648
-50,253296
-46,42639
-33,737183
-21,24939
-16,415405
-12,890625
-7,4523926
-5,5389404
2,5177002
7,1502686
8,660889
7,4523926
11,279297
10,473633
10,675049
7,5531006
7,1502686
-4,3304443
-10,876465
-10,171509
-13,796997
-11,782837
-10,372925
-0,9063721
6,1431885
0,50354004
5,1361084
-8,258057
-6,7474365
-12,387085
-20,141602
-25,177002
-25,680542
-36,95984
-41,793823
-50,454712
-57,907104
-67,57507
-75,631714
-83,88977
-82,47986
-70,19348
-43,103027
-25,881958
-21,148682
-10,272217
-4,2297363
1,6113281
11,178589
22,76001
31,521606
28,29895
27,593994
30,413818
24,371338
28,198242
19,638062
13,998413
20,645142
-4,4311523
-2,1148682
-7,8552246
-10,171509
-18,630981
-13,998413
-16,818237
-14,300537
-25,076294
-30,615234
-33,132935
-35,44922
-40,182495
-44,815063
-49,54834
-52,166748
-51,864624
-44,613647
-41,189575
-44,0094
-40,585327
-38,571167
-32,125854
-8,459473
-12,084961
-6,7474365
0,10070801
6,6467285
15,911865
22,659302
22,860718
21,954346
27,896118
28,29895
29,104614
28,500366
29,205322
32,93152
26,687622
17,825317
25,177002
23,464966
8,761597
4,6325684
0,10070801
2,9205322
-2,9205322
-10,473633
-21,551514
-22,860718
-31,420898
-34,240723
-43,40515
-39,37683
-46,627808
-47,131348
-46,325684
-46,829224
-42,196655
-51,663208
-52,468872
-50,454712
-38,772583
-22,457886
-5,9417725
-10,775757
0,20141602
7,2509766
17,019653
19,839478
23,76709
23,666382
24,472046
25,881958
27,896118
28,29895
25,982666
21,450806
19,638062
16,113281
17,72461
13,998413
7,2509766
0,60424805
2,7191162
-0,20141602
-4,4311523
-11,581421
-17,22107
-27,29187
-27,79541
-37,86621
-42,90161
-45,117188
-49,850464
-49,850464
-51,260376
-56,900024
-54,483032
-50,454712
-53,979492
-48,138428
-37,664795
-23,464966
-11,178589
0,50354004
3,7261963
9,768677
14,501953
20,443726
33,132935
37,564087
36,154175
39,678955
38,269043
42,095947
25,378418
25,881958
26,486206
25,27771
22,961426
27,896118
17,825317
4,6325684
-2,2155762
2,0141602
0,70495605
-2,8198242
-7,9559326
-9,567261
-17,22107
-26,184082
-40,182495
-33,132935
-43,103027
-46,728516
-50,454712
-47,03064
-40,786743
-41,189575
-45,92285
-37,765503
-30,31311
-19,23523
-5,2368164
-5,9417725
0,70495605
10,171509
18,328857
29,30603
26,28479
39,37683
39,175415
40,686035
39,175415
42,49878
38,067627
37,564087
34,34143
22,357178
31,924438
17,019653
14,401245
13,192749
15,408325
5,8410645
2,6184082
-2,7191162
-1,7120361
-10,372925
-14,099121
-23,062134
-21,24939
-23,162842
-29,205322
-25,881958
-28,29895
-29,507446
-25,579834
-26,28479
-30,111694
-29,205322
-21,652222
-4,6325684
-3,8269043
3,4240723
-5,2368164
13,998413
23,867798
29,910278
28,097534
31,420898
36,254883
35,147095
52,468872
39,276123
32,93152
30,111694
29,910278
22,055054
17,825317
10,372925
7,5531006
4,3304443
1,0070801
3,9276123
5,6396484
3,9276123
-6,2438965
-10,775757
-14,300537
-26,28479
-30,212402
-24,371338
-31,32019
-36,657715
-38,974
-33,737183
-34,039307
-37,664795
-38,36975
-34,240723
-28,29895
-15,609741
-7,5531006
4,6325684
2,4169922
11,984253
19,436646
16,314697
22,055054
32,730103
29,608154
29,708862
26,889038
24,472046
20,343018
22,76001
25,479126
14,300537
8,157349
8,963013
-2,0141602
-8,862305
-13,595581
-9,466553
-10,775757
-14,501953
-13,998413
-24,673462
-23,062134
-21,652222
-23,867798
-20,443726
-27,694702
-31,420898
-32,528687
-33,43506
-37,86621
-29,80957
-25,177002
-23,26355
-13,394165
-1,5106201
2,2155762
21,450806
15,106201
21,652222
24,472046
30,917358
31,924438
34,542847
40,786743
46,92993
47,836304
42,39807
38,36975
36,657715
28,601074
24,27063
20,74585
19,033813
5,9417725
-3,5247803
-9,567261
3,3233643
0,10070801
-2,1148682
-12,185669
-14,602661
-18,026733
-21,047974
-33,9386
-33,535767
-35,95276
-29,910278
-26,28479
-19,839478
-24,069214
-19,638062
-19,23523
-6,8481445
-5,5389404
6,0424805
17,22107
19,436646
28,399658
34,34143
38,772583
38,36975
40,182495
44,51294
35,95276
37,564087
25,177002
34,542847
34,542847
32,730103
32,93152
26,687622
23,464966
13,696289
9,567261
5,3375244
-0,20141602
4,4311523
2,6184082
-5,9417725
-4,6325684
-13,293457
-20,74585
-31,723022
-29,80957
-37,060547
-39,578247
-32,528687
-29,80957
-39,88037
-41,39099
-38,168335
-44,714355
-46,02356
-38,269043
-19,638062
-15,710449
-11,178589
-5,9417725
-2,7191162
5,4382324
15,005493
22,961426
24,874878
29,608154
31,924438
23,666382
24,673462
21,652222
27,896118
18,832397
14,199829
12,991333
4,8339844
0,9063721
-5,0354004
-4,3304443
0,60424805
-6,9488525
-19,638062
-9,567261
-28,097534
-31,924438
-47,43347
-45,318604
-46,728516
-46,02356
-43,40515
-40,585327
-40,786743
-43,203735
-44,41223
-41,793823
-41,088867
-33,233643
-25,076294
-9,164429
-4,4311523
5,5389404
16,616821
10,372925
21,047974
31,420898
30,514526
35,95276
32,629395
35,85205
34,039307
31,521606
30,715942
27,79541
16,818237
19,335938
12,588501
7,7545166
7,8552246
11,480713
9,466553
-1,8127441
-1,5106201
-10,171509
-19,537354
-23,666382
-29,104614
-32,226562
-30,615234
-33,132935
-31,521606
-41,39099
-43,50586
-39,578247
-41,4917
-43,00232
-45,217896
-40,081787
-27,996826
-16,818237
-9,667969
5,5389404
5,5389404
9,365845
14,199829
28,198242
43,00232
48,239136
54,18091
57,907104
57,806396
58,813477
58,007812
56,5979
55,69153
55,69153
54,281616
46,829224
45,318604
34,34143
32,226562
20,141602
6,3446045
-11,782837
-21,148682
-25,680542
-33,737183
-32,125854
-38,168335
-42,599487
-48,742676
-43,807983
-55,08728
-39,98108
-18,832397
-9,768677
-5,0354004
-0,10070801
16,616821
21,450806
16,21399
19,335938
26,184082
33,43506
34,84497
45,822144
45,721436
40,38391
46,728516
47,634888
38,36975
38,772583
34,240723
34,744263
32,629395
25,076294
11,581421
6,5460205
4,5318604
-7,3516846
-1,3092041
-5,0354004
-4,6325684
-15,408325
-19,134521
-27,896118
-32,730103
-33,33435
-24,069214
-44,51294
-43,807983
-34,34143
-36,95984
-36,557007
-36,254883
-36,95984
-26,889038
-29,608154
-21,148682
-16,415405
-19,940186
-11,782837
-7,7545166
-4,5318604
5,0354004
4,8339844
13,998413
28,500366
32,528687
36,657715
38,772583
44,613647
41,189575
40,786743
33,233643
33,132935
23,062134
19,940186
13,897705
12,185669
15,509033
11,480713
2,3162842
-11,480713
-14,401245
-24,069214
-25,881958
-32,125854
-39,678955
-36,85913
-34,34143
-27,493286
-30,514526
-35,147095
-37,86621
-29,406738
-30,715942
-28,500366
-14,199829
-7,6538086
2,3162842
3,4240723
13,998413
20,24231
24,673462
21,652222
25,27771
26,687622
24,673462
21,350098
21,24939
14,703369
16,616821
8,963013
6,2438965
1,4099121
0,70495605
-2,2155762
-4,7332764
-7,4523926
-1,0070801
-2,7191162
-10,070801
-15,811157
-18,22815
-24,472046
-15,609741
-17,422485
-20,443726
-24,673462
-22,76001
-22,155762
-29,003906
-35,247803
-37,96692
-35,751343
-31,32019
-31,32019
-13,897705
-5,0354004
-5,1361084
-2,5177002
9,265137
15,005493
21,551514
23,76709
27,79541
30,615234
31,219482
28,29895
22,25647
18,73169
7,1502686
11,279297
2,1148682
4,9346924
3,2226562
-5,6396484
-7,8552246
-9,970093
-15,811157
-17,120361
-24,472046
-30,81665
-41,89453
-38,168335
-53,375244
-53,07312
-56,69861
-61,12976
-60,424805
-54,68445
-42,095947
-41,592407
-39,779663
-41,189575
-46,02356
-45,117188
-23,062134
-7,9559326
4,5318604
9,466553
10,372925
15,408325
23,062134
23,867798
27,593994
29,910278
29,910278
31,924438
29,608154
37,564087
29,30603
24,169922
21,24939
18,530273
15,509033
8,157349
1,6113281
4,1290283
3,7261963
0,50354004
-5,9417725
-18,429565
-21,853638
-29,80957
-31,219482
-33,737183
-28,29895
-31,82373
-37,46338
-41,088867
-34,44214
-42,39807
-40,686035
-31,924438
-32,629395
-27,694702
-9,164429
3,6254883
6,5460205
12,991333
18,429565
19,638062
31,118774
31,723022
37,161255
36,657715
35,95276
32,730103
21,853638
21,853638
29,910278
19,436646
18,530273
10,977173
14,602661
7,1502686
3,3233643
0,80566406
1,8127441
-8,258057
-18,328857
-22,457886
-21,450806
-32,025146
-28,601074
-28,29895
-29,910278
-31,521606
-32,528687
-26,083374
-30,010986
-35,34851
-28,29895
-28,701782
-22,055054
-7,9559326
7,8552246
9,265137
23,464966
27,493286
33,43506
30,212402
35,147095
47,634888
48,138428
43,50586
39,98108
42,39807
41,39099
37,86621
39,37683
27,191162
32,93152
23,867798
15,911865
17,019653
-0,10070801
6,6467285
4,6325684
-0,40283203
-9,667969
-9,567261
-24,472046
-33,132935
-38,47046
-37,96692
-38,87329
-43,40515
-40,786743
-44,41223
-38,87329
-34,643555
-31,723022
-29,205322
-29,708862
-20,343018
-17,321777
-2,7191162
11,883545
27,392578
27,493286
31,622314
36,85913
40,98816
48,742676
46,325684
37,564087
39,37683
41,189575
40,38391
34,94568
24,673462
22,155762
16,314697
7,4523926
9,768677
2,3162842
7,7545166
4,0283203
5,1361084
-2,9205322
-17,523193
-20,645142
-31,118774
-30,010986
-33,535767
-32,125854
-37,664795
-42,39807
-45,620728
-41,39099
-42,599487
-39,779663
-37,664795
-29,30603
-22,457886
-7,3516846
-5,2368164
-0,9063721
4,2297363
3,6254883
2,9205322
15,005493
27,493286
25,78125
34,94568
42,196655
51,260376
31,018066
25,982666
23,867798
22,357178
22,055054
12,286377
7,5531006
3,0212402
-2,9205322
4,4311523
8,056641
-1,1077881
-8,560181
-19,23523
-17,623901
-28,097534
-23,26355
-25,579834
-31,018066
-30,31311
-33,132935
-27,191162
-39,779663
-25,27771
-29,708862
-27,593994
-27,29187
-16,918945
-5,1361084
-5,5389404
3,0212402
11,682129
10,775757
23,062134
23,867798
28,097534
29,910278
32,93152
34,039307
31,82373
33,43506
28,701782
26,586914
22,659302
18,73169
17,825317
9,869385
2,5177002
-4,5318604
-5,7403564
-1,6113281
-12,286377
-15,408325
-16,616821
-24,572754
-24,975586
-38,168335
-42,800903
-45,217896
-53,375244
-47,634888
-54,0802
-47,634888
-45,217896
-44,815063
-38,974
-37,765503
-26,687622
-9,164429
-1,3092041
1,6113281
7,0495605
15,005493
26,28479
29,708862
28,500366
28,500366
34,94568
41,4917
42,599487
36,85913
38,36975
31,924438
26,78833
24,77417
25,479126
18,933105
15,307617
7,8552246
7,8552246
11,380005
8,862305
-3,9276123
-10,775757
-17,120361
-21,047974
-28,500366
-26,889038
-25,982666
-26,083374
-32,730103
-30,917358
-33,233643
-37,96692
-38,47046
-36,657715
-37,96692
-25,27771
-12,588501
-5,6396484
1,0070801
4,5318604
13,796997
23,062134
22,659302
25,378418
29,003906
28,601074
33,032227
26,586914
21,047974
23,565674
19,033813
17,926025
13,897705
13,897705
5,4382324
-4,5318604
-11,782837
-15,206909
-8,560181
-4,1290283
-1,9134521
-8,056641
-9,164429
-7,9559326
-10,372925
-20,947266
-25,881958
-26,385498
-27,593994
-26,083374
-28,80249
-20,74585
-26,889038
-34,94568
-33,132935
-25,78125
-8,258057
-5,1361084
-1,3092041
6,6467285
16,415405
17,422485
25,076294
31,118774
35,751343
37,060547
31,420898
26,989746
31,118774
33,535767
25,27771
24,874878
19,134521
17,321777
12,387085
0,60424805
-8,560181
-10,775757
-10,775757
-8,660889
-21,652222
-28,601074
-35,247803
-43,807983
-46,02356
-49,246216
-46,224976
-45,41931
-36,758423
-27,191162
-23,968506
-20,846558
-17,825317
-15,307617
-11,380005
-6,9488525
7,1502686
8,963013
18,630981
23,968506
32,226562
39,276123
34,34143
49,649048
31,219482
33,032227
28,399658
23,867798
25,479126
23,666382
24,77417
19,134521
16,71753
15,206909
10,272217
2,9205322
-0,40283203
-10,876465
-3,7261963
1,1077881
-13,494873
-21,350098
-25,177002
-30,81665
-40,283203
-30,917358
-33,33435
-40,585327
-37,46338
-38,47046
-40,585327
-44,41223
-46,42639
-43,103027
-42,39807
-32,93152
-18,429565
-6,0424805
1,1077881
0,60424805
3,2226562
11,380005
17,22107
20,846558
22,659302
28,500366
29,104614
31,723022
24,069214
23,666382
19,940186
20,24231
8,157349
4,9346924
-0,30212402
-0,30212402
-2,8198242
-6,9488525
3,5247803
-3,1219482
-7,7545166
-14,501953
-26,889038
-31,924438
-34,744263
-38,36975
-42,599487
-44,210815
-39,779663
-36,053467
-36,95984
-36,557007
-31,420898
-37,564087
-36,4563
-25,680542
-11,077881
-0,20141602
1,9134521
5,5389404
10,372925
16,71753
24,472046
33,636475
29,003906
26,184082
36,657715
32,025146
25,680542
30,81665
18,933105
24,874878
14,199829
7,5531006
0,50354004
-0,10070801
-0,50354004
-0,30212402
2,1148682
-2,6184082
-5,8410645
-9,970093
-11,883545
-24,572754
-21,75293
-25,78125
-24,472046
-24,77417
-36,758423
-37,564087
-37,060547
-40,38391
-35,95276
-32,730103
-36,35559
-27,29187
-1,4099121
-7,1502686
8,358765
14,199829
15,005493
23,666382
31,622314
38,067627
49,346924
57,000732
41,592407
44,41223
45,318604
39,37683
32,528687
27,090454
30,212402
23,26355
19,638062
12,890625
8,761597
5,6396484
10,070801
-5,1361084
-9,164429
-14,401245
-16,516113
-24,169922
-31,924438
-33,737183
-31,32019
-35,549927
-34,140015
-37,36267
-37,86621
-36,35559
-41,4917
-43,103027
-34,94568
-22,76001
-8,056641
-0,40283203
-4,1290283
2,4169922
8,660889
12,185669
19,73877
29,003906
23,26355
26,989746
29,30603
28,29895
26,989746
24,874878
25,479126
22,76001
21,148682
19,537354
19,940186
13,192749
7,2509766
13,696289
13,092041
5,5389404
0,50354004
-5,3375244
-9,667969
-18,22815
-24,27063
-30,31311
-33,737183
-32,125854
-29,80957
-34,744263
-44,815063
-39,074707
-33,737183
-31,420898
-33,132935
-23,464966
-9,063721
-5,8410645
-5,2368164
10,675049
18,73169
32,226562
23,062134
27,191162
33,535767
39,37683
43,304443
35,85205
35,046387
33,535767
27,79541
24,572754
23,565674
13,394165
13,998413
2,5177002
-2,5177002
7,1502686
0,80566406
-0,40283203
-6,8481445
-14,199829
-19,134521
-26,889038
-32,629395
-30,81665
-33,83789
-34,84497
-39,276123
-37,36267
-32,32727
-35,751343
-41,189575
-36,053467
-33,737183
-23,666382
-12,689209
-5,7403564
0,9063721
6,0424805
9,365845
17,019653
24,169922
29,80957
36,35559
32,629395
28,500366
31,32019
31,420898
20,645142
20,24231
19,436646
17,22107
16,415405
11,077881
6,9488525
-2,7191162
0,9063721
-4,7332764
1,7120361
-7,1502686
-17,926025
-22,961426
-28,903198
-36,053467
-39,37683
-35,650635
-41,89453
-36,95984
-41,793823
-39,779663
-35,95276
-38,269043
-38,168335
-30,111694
-28,198242
-24,673462
-5,3375244
1,1077881
12,890625
13,595581
10,675049
14,199829
12,487793
8,761597
17,72461
18,530273
23,364258
22,25647
21,75293
24,472046
17,623901
14,904785
21,047974
25,177002
14,300537
14,401245
5,1361084
13,293457
9,768677
-0,30212402
0,9063721
-10,070801
-18,832397
-23,565674
-25,881958
-32,629395
-30,31311
-39,074707
-39,175415
-45,822144
-47,836304
-46,5271
-43,807983
-43,90869
-35,751343
-18,328857
-6,7474365
-2,4169922
7,5531006
10,473633
2,4169922
17,72461
32,730103
41,592407
42,39807
53,475952
46,829224
44,210815
45,620728
36,758423
30,31311
25,076294
21,853638
16,21399
11,782837
9,970093
1,1077881
4,4311523
-1,2084961
-12,185669
-14,199829
-25,177002
-30,111694
-40,786743
-39,678955
-38,974
-37,96692
-31,32019
-39,37683
-38,571167
-36,254883
-37,261963
-42,49878
-40,98816
-27,29187
-10,272217
-11,279297
-3,8269043
-0,60424805
4,2297363
7,1502686
19,638062
23,968506
31,420898
31,924438
30,81665
32,93152
30,413818
29,910278
27,996826
24,673462
15,408325
10,473633
3,2226562
6,8481445
3,2226562
-3,4240723
-4,8339844
-4,1290283
-11,883545
-23,867798
-31,018066
-31,622314
-34,643555
-38,974
-40,686035
-39,37683
-43,203735
-38,168335
-38,47046
-39,276123
-38,671875
-46,124268
-42,196655
-31,723022
-20,645142
-8,660889
0,50354004
6,1431885
8,459473
15,911865
21,24939
29,104614
28,399658
36,758423
30,111694
22,25647
19,940186
25,177002
40,98816
25,076294
19,335938
19,73877
11,883545
3,6254883
-0,10070801
-0,10070801
-1,9134521
-4,1290283
-13,595581
-19,839478
-23,666382
-29,507446
-34,140015
-38,671875
-42,39807
-36,657715
-38,269043
-45,41931
-44,41223
-44,311523
-46,5271
-44,41223
-38,36975
-22,25647
-5,4382324
-1,5106201
-0,30212402
1,7120361
1,9134521
4,3304443
9,365845
13,696289
8,963013
8,862305
15,408325
15,106201
10,272217
6,6467285
8,963013
14,804077
13,696289
32,226562
23,464966
21,652222
26,687622
20,343018
22,25647
16,71753
4,9346924
-2,2155762
-11,178589
-13,293457
-13,796997
-14,904785
-10,473633
-19,033813
-22,25647
-15,811157
-18,832397
-17,120361
-24,673462
-26,28479
-26,28479
-20,443726
-6,9488525
-2,3162842
18,630981
-1,0070801
6,2438965
19,033813
26,486206
27,493286
32,226562
31,32019
35,650635
34,84497
35,95276
32,730103
29,104614
25,479126
18,530273
18,630981
6,8481445
0,70495605
-6,7474365
-0,70495605
-0,70495605
-5,3375244
-17,22107
-16,918945
-29,205322
-33,9386
-35,44922
-35,34851
-35,147095
-38,974
-42,196655
-37,664795
-39,98108
-42,90161
-37,564087
-44,714355
-40,081787
-28,097534
-17,72461
-8,560181
-0,30212402
8,358765
16,113281
16,21399
20,74585
25,881958
31,118774
25,78125
24,472046
29,104614
26,385498
15,408325
21,047974
18,630981
16,818237
15,307617
16,21399
10,675049
0,40283203
2,5177002
-1,0070801
-8,560181
-4,3304443
-9,466553
-21,148682
-28,097534
-35,147095
-35,147095
-38,36975
-38,47046
-37,96692
-42,39807
-35,95276
-35,247803
-31,82373
-37,36267
-36,95984
-26,78833
-11,782837
-0,10070801
-2,0141602
5,3375244
17,120361
23,464966
25,680542
33,233643
29,104614
25,579834
36,254883
32,025146
28,097534
20,24231
18,026733
12,387085
20,443726
16,21399
16,415405
-1,8127441
-0,9063721
-0,10070801
3,4240723
-9,970093
-14,602661
-27,191162
-34,34143
-35,95276
-40,98816
-51,864624
-48,843384
-46,02356
-31,219482
-34,542847
-34,744263
-36,254883
-30,010986
-28,198242
-25,378418
-19,537354
-6,0424805
1,2084961
19,134521
29,104614
32,528687
39,678955
37,96692
53,878784
39,37683
39,88037
43,606567
45,822144
47,634888
41,89453
40,38391
35,046387
31,420898
23,062134
14,199829
5,4382324
2,3162842
2,6184082
5,6396484
-7,1502686
-15,811157
-15,005493
-23,867798
-35,247803
-33,132935
-35,85205
-42,297363
-35,95276
-31,622314
-39,98108
-35,44922
-36,4563
-39,98108
-34,94568
-40,585327
-29,104614
-13,796997
3,7261963
3,5247803
3,5247803
13,796997
26,687622
23,76709
25,27771
39,175415
33,43506
34,542847
33,535767
34,542847
26,78833
25,78125
20,947266
5,0354004
11,178589
-0,50354004
16,818237
-1,8127441
-15,005493
-8,459473
-11,984253
-24,169922
-32,42798
-40,88745
-48,641968
-51,361084
-57,302856
-60,12268
-55,389404
-42,39807
-30,81665
-24,874878
-14,401245
-10,070801
-10,574341
-1,7120361
-3,7261963
10,372925
13,092041
12,185669
16,415405
21,551514
30,413818
36,053467
42,39807
49,44763
47,53418
39,37683
42,297363
38,47046
35,751343
27,694702
28,500366
22,659302
13,394165
11,279297
6,5460205
0,80566406
7,0495605
5,7403564
12,890625
-0,40283203
-15,609741
-21,75293
-22,860718
-30,111694
-25,881958
-31,420898
-35,751343
-37,261963
-37,36267
-38,974
-38,47046
-39,98108
-39,175415
-37,36267
-27,896118
-13,192749
-3,4240723
-0,10070801
-2,3162842
7,4523926
15,811157
21,954346
24,673462
25,680542
24,27063
30,111694
26,687622
28,399658
23,666382
23,565674
21,853638
11,581421
10,977173
8,761597
5,3375244
-2,4169922
2,0141602
4,6325684
1,0070801
-4,2297363
-15,408325
-21,652222
-36,154175
-38,772583
-34,240723
-40,081787
-39,37683
-34,140015
-33,535767
-32,83081
-37,96692
-29,708862
-32,528687
-31,723022
-17,72461
-7,9559326
-2,2155762
1,7120361
5,9417725
16,918945
16,415405
27,694702
35,650635
31,622314
34,94568
34,542847
31,723022
31,018066
29,80957
25,27771
24,27063
16,918945
5,9417725
3,5247803
-4,8339844
-9,970093
-7,1502686
-2,2155762
0,50354004
-9,164429
-14,804077
-26,687622
-25,177002
-34,744263
-29,003906
-27,191162
-27,996826
-27,29187
-28,903198
-30,615234
-29,910278
-29,507446
-31,32019
-30,413818
-19,23523
-7,0495605
0,70495605
7,7545166
11,984253
16,113281
27,493286
34,744263
33,9386
34,240723
31,82373
29,30603
36,154175
35,44922
33,83789
34,744263
28,399658
19,033813
10,372925
6,6467285
-5,3375244
-11,077881
-13,092041
-10,876465
-8,560181
-16,415405
-18,832397
-17,72461
-13,897705
-6,3446045
-12,689209
-23,867798
-38,571167
-46,224976
-43,40515
-51,461792
-51,361084
-47,332764
-49,749756
-49,246216
-39,074707
-23,26355
-13,092041
-8,963013
5,8410645
9,869385
15,408325
19,23523
32,93152
32,629395
37,46338
37,46338
38,269043
35,85205
38,671875
36,254883
29,104614
23,666382
25,378418
21,954346
17,926025
6,8481445
-0,70495605
1,7120361
-1,5106201
-8,459473
-5,7403564
-10,775757
-25,881958
-24,874878
-27,593994
-29,910278
-34,744263
-37,36267
-33,132935
-33,233643
-38,571167
-42,39807
-38,671875
-32,528687
-24,472046
-14,401245
-2,1148682
2,7191162
7,8552246
8,963013
17,422485
21,954346
23,666382
31,32019
33,132935
33,83789
29,910278
22,558594
19,436646
16,516113
15,206909
16,71753
19,940186
23,062134
17,120361
15,811157
10,977173
17,321777
5,7403564
-2,1148682
-10,977173
-13,494873
-24,673462
-28,097534
-28,601074
-34,744263
-36,154175
-37,96692
-42,196655
-40,686035
-34,34143
-39,37683
-39,678955
-39,175415
-21,350098
-14,300537
-8,157349
-2,7191162
2,8198242
18,127441
18,832397
24,874878
25,479126
31,521606
31,924438
44,41223
45,721436
21,450806
24,371338
21,954346
15,811157
14,199829
13,696289
7,1502686
0
-0,9063721
-3,2226562
-0,9063721
-8,358765
-12,991333
-18,832397
-26,486206
-24,874878
-31,32019
-38,974
-44,714355
-44,210815
-51,159668
-45,620728
-44,210815
-37,96692
-34,744263
-31,521606
-23,464966
-15,811157
4,0283203
10,473633
17,422485
18,832397
25,378418
34,542847
38,671875
51,461792
37,96692
40,38391
39,578247
44,91577
36,557007
32,32727
28,399658
22,659302
22,457886
18,73169
18,832397
8,761597
2,2155762
-1,5106201
-0,40283203
1,3092041
-2,6184082
-9,667969
-21,551514
-27,090454
-36,85913
-39,37683
-31,521606
-36,557007
-37,261963
-36,154175
-37,96692
-30,212402
-32,93152
-35,34851
-43,50586
-29,80957
-14,602661
-10,272217
-10,977173
-1,6113281
3,0212402
5,5389404
19,638062
26,78833
31,521606
30,514526
35,549927
35,85205
30,715942
35,751343
23,666382
22,659302
19,638062
16,818237
11,782837
9,768677
-1,7120361
-0,50354004
-0,50354004
-10,070801
-6,6467285
-15,307617
-16,616821
-25,982666
-28,500366
-30,615234
-39,37683
-41,793823
-36,4563
-33,132935
-40,786743
-34,44214
-31,723022
-38,168335
-37,86621
-26,28479
-12,588501
-6,1431885
0,80566406
7,4523926
12,487793
26,28479
22,860718
34,542847
35,751343
22,659302
28,701782
34,542847
30,917358
27,392578
26,486206
24,975586
30,514526
25,78125
5,8410645
-0,20141602
-0,50354004
-3,9276123
-9,667969
-6,8481445
-13,796997
-25,680542
-28,198242
-37,36267
-35,046387
-30,212402
-37,261963
-35,147095
-34,643555
-32,125854
-33,032227
-34,240723
-39,578247
-37,060547
-32,730103
-23,666382
-12,789917
-7,9559326
3,3233643
8,560181
9,970093
12,991333
17,825317
26,28479
29,507446
28,601074
34,34143
27,79541
19,839478
18,630981
21,652222
19,940186
12,991333
15,710449
1,1077881
6,5460205
-4,7332764
-5,0354004
-9,970093
-7,3516846
-16,415405
-21,24939
-27,191162
-36,657715
-36,758423
-34,94568
-29,910278
-38,974
-32,025146
-31,219482
-21,24939
-19,436646
-18,429565
-21,853638
-19,940186
-7,5531006
4,9346924
8,761597
18,429565
20,24231
28,29895
24,874878
31,018066
36,95984
37,765503
33,233643
25,78125
21,450806
22,659302
18,73169
17,523193
19,23523
20,74585
18,22815
14,501953
13,897705
2,3162842
-7,2509766
-3,5247803
-6,7474365
-17,22107
-25,177002
-34,744263
-40,786743
-47,332764
-44,41223
-38,168335
-34,542847
-35,650635
-30,917358
-35,247803
-32,32727
-32,730103
-30,212402
-29,910278
-12,487793
-2,3162842
3,0212402
8,157349
18,429565
18,933105
20,74585
15,811157
20,74585
23,867798
26,889038
28,198242
21,148682
17,623901
16,918945
8,459473
10,171509
21,652222
23,666382
32,226562
24,472046
15,811157
3,7261963
10,574341
-1,8127441
-6,0424805
-10,574341
-22,25647
-22,457886
-27,896118
-31,82373
-33,132935
-32,730103
-34,039307
-33,737183
-41,89453
-38,87329
-36,557007
-38,168335
-35,751343
-32,528687
-10,876465
-7,9559326
0,10070801
5,6396484
10,372925
18,429565
26,687622
31,32019
23,26355
33,9386
32,730103
33,33435
27,090454
23,867798
21,24939
26,184082
12,890625
17,019653
13,192749
6,8481445
-3,0212402
-0,40283203
-0,70495605
-4,5318604
-12,185669
-11,984253
-16,516113
-29,205322
-31,521606
-30,715942
-39,37683
-36,154175
-35,95276
-40,88745
-32,629395
-39,276123
-36,95984
-30,413818
-35,650635
-31,118774
-17,22107
-13,696289
-6,3446045
0,80566406
-1,2084961
12,890625
13,092041
17,72461
21,853638
25,177002
22,055054
26,989746
21,954346
28,80249
29,507446
30,111694
26,687622
25,982666
25,076294
18,22815
19,134521
19,436646
25,076294
22,055054
5,5389404
0,9063721
-8,560181
-14,703369
-27,29187
-23,26355
-30,917358
-29,507446
-30,81665
-36,85913
-39,578247
-41,793823
-33,33435
-34,643555
-33,9386
-12,286377
-3,1219482
8,560181
12,387085
13,293457
13,092041
13,796997
26,083374
28,097534
34,542847
34,542847
43,807983
34,140015
33,33435
33,9386
32,42798
20,040894
19,537354
8,056641
4,4311523
-4,3304443
1,9134521
3,5247803
-3,7261963
-4,1290283
-6,8481445
-13,998413
-23,162842
-26,687622
-29,910278
-33,535767
-38,772583
-33,636475
-43,103027
-42,90161
-45,52002
-44,210815
-42,39807
-38,571167
-38,47046
-25,579834
-8,862305
-1,8127441
6,8481445
16,616821
18,328857
21,75293
24,27063
38,36975
39,98108
40,081787
41,89453
34,34143
36,4563
29,003906
23,565674
19,940186
17,321777
17,120361
5,9417725
-0,10070801
1,3092041
2,1148682
-0,60424805
-8,258057
-14,602661
-22,961426
-21,954346
-35,34851
-36,758423
-42,196655
-25,076294
-34,039307
-51,965332
-49,44763
-41,89453
-42,49878
-50,253296
-36,95984
-34,140015
-31,32019
-19,335938
-12,387085
-1,7120361
0,30212402
7,1502686
10,775757
17,825317
20,544434
13,494873
20,947266
19,839478
22,659302
19,134521
13,293457
14,199829
11,883545
-6,4453125
-0,40283203
-5,9417725
-8,560181
-8,258057
-4,3304443
-4,3304443
-6,2438965
-15,408325
-18,127441
-22,055054
-26,083374
-34,140015
-31,219482
-32,025146
-32,629395
-31,521606
-25,479126
-27,191162
-36,557007
-30,615234
-35,147095
-37,96692
-23,76709
-10,372925
-5,5389404
-0,60424805
11,682129
18,328857
27,896118
37,96692
34,94568
37,765503
37,664795
40,585327
34,140015
33,9386
31,420898
36,758423
18,73169
23,76709
13,293457
14,300537
12,185669
11,682129
5,6396484
4,9346924
-6,0424805
-15,710449
-26,687622
-26,889038
-35,046387
-30,31311
-29,003906
-46,829224
-42,196655
-45,41931
-38,47046
-47,836304
-49,649048
-46,92993
-39,779663
-36,95984
-18,630981
-7,0495605
-3,1219482
1,3092041
13,595581
5,8410645
16,516113
30,514526
40,786743
43,807983
36,95984
40,182495
41,693115
34,542847
31,521606
24,472046
17,019653
14,199829
12,689209
6,9488525
1,1077881
-9,063721
-7,5531006
-9,164429
-7,0495605
-17,623901
-21,551514
-23,464966
-24,572754
-26,184082
-26,989746
-29,003906
-28,399658
-28,399658
-28,399658
-28,399658
-28,399658
-28,399658
-28,399658
-28,399658
-28,399658
-28,399658
-28,399658
-28,399658
-28,399658
-28,399658
-28,399658
28,500366
33,535767
40,88745
44,210815
37,765503
41,39099
35,751343
28,399658
24,975586
11,178589
16,818237
16,415405
12,487793
6,8481445
-6,6467285
-2,9205322
-1,1077881
-5,3375244
-9,970093
-24,169922
-24,673462
-31,723022
-37,765503
-41,189575
-45,620728
-35,34851
-37,664795
-33,233643
-29,608154
-30,413818
-31,924438
-30,615234
-34,240723
-18,328857
-5,6396484
5,6396484
4,9346924
7,0495605
12,487793
23,867798
31,32019
43,90869
43,304443
45,52002
46,124268
48,641968
43,203735
35,34851
31,622314
32,32727
29,30603
23,76709
13,696289
5,4382324
5,7403564
5,5389404
2,0141602
-2,1148682
-8,660889
-15,408325
-23,666382
-32,125854
-37,765503
-35,85205
-33,535767
-36,35559
-35,147095
-33,737183
-36,154175
-37,161255
-36,053467
-38,974
-44,0094
-31,118774
-18,933105
-9,365845
-4,3304443
-2,3162842
2,0141602
7,9559326
16,012573
19,839478
29,30603
27,493286
31,622314
33,43506
29,003906
35,95276
26,486206
32,32727
30,111694
21,148682
20,544434
13,595581
9,768677
8,761597
-3,5247803
-3,3233643
-11,380005
-15,408325
-18,73169
-23,062134
-26,687622
-25,479126
-28,198242
-29,910278
-32,42798
-30,111694
-37,765503
-27,191162
-46,124268
-38,571167
-51,05896
-41,793823
-28,097534
-16,012573
-8,560181
0,10070801
0,70495605
9,365845
10,372925
17,926025
24,673462
29,104614
37,36267
46,42639
40,786743
42,599487
40,585327
33,83789
30,010986
24,472046
17,019653
11,077881
2,3162842
1,7120361
-2,2155762
-2,1148682
-11,581421
-7,5531006
-19,134521
-18,832397
-24,371338
-24,874878
-22,659302
-30,31311
-31,521606
-32,83081
-38,269043
-38,974
-35,751343
-37,664795
-31,118774
-22,558594
-12,286377
-1,5106201
3,2226562
9,768677
13,796997
19,436646
20,040894
26,687622
33,33435
36,154175
35,549927
30,514526
29,30603
22,155762
21,551514
34,34143
27,896118
13,897705
14,099121
5,0354004
-0,10070801
2,7191162
-6,1431885
-5,1361084
-17,926025
-22,25647
-27,694702
-29,507446
-28,701782
-31,118774
-36,85913
-32,83081
-39,88037
-36,758423
-42,196655
-43,40515
-48,94409
-43,00232
-42,700195
-35,44922
-28,903198
-25,479126
-28,80249
-13,696289
-12,286377
-0,20141602
4,1290283
12,286377
14,602661
23,565674
27,996826
44,210815
53,57666
51,5625
46,829224
39,779663
37,161255
29,507446
22,25647
20,544434
17,825317
21,148682
21,350098
5,2368164
-3,2226562
-2,4169922
-12,387085
-21,350098
-25,177002
-26,486206
-29,608154
-38,974
-31,018066
-30,31311
-34,744263
-39,47754
-42,599487
-44,311523
-39,779663
-27,29187
-19,335938
-11,480713
-0,30212402
9,466553
12,185669
18,832397
22,76001
30,715942
42,39807
44,210815
49,749756
48,03772
47,03064
39,779663
41,39099
41,290283
29,608154
27,493286
21,350098
10,977173
8,157349
-3,9276123
-4,6325684
-17,422485
-32,226562
-43,807983
-53,17383
-52,56958
-53,67737
-38,168335
-54,483032
-47,93701
-45,721436
-41,4917
-38,671875
-38,671875
-33,33435
-29,406738
-33,737183
-27,79541
-52,972412
-65,15808
-63,74817
-50,958252
-47,03064
-37,564087
-30,111694
-23,364258
-9,970093
-6,5460205
13,192749
21,75293
67,57507
98,49243
119,23828
132,63245
116,922
71,7041
27,493286
12,185669
7,6538086
21,148682
21,047974
13,595581
-0,9063721
-17,926025
-29,104614
-34,34143
-43,103027
-41,592407
-39,98108
-37,564087
-40,786743
-37,564087
-36,657715
-36,35559
-34,140015
-31,924438
-23,26355
-12,890625
3,2226562
10,574341
16,21399
22,25647
20,544434
22,155762
29,608154
33,032227
39,88037
39,276123
36,053467
31,924438
33,132935
28,500366
28,399658
23,062134
17,019653
20,24231
15,408325
21,954346
-2,3162842
0,9063721
-3,1219482
-4,7332764
-15,307617
-20,74585
-22,155762
-22,860718
-23,26355
-34,542847
-34,140015
-38,269043
-38,067627
-47,03064
-48,641968
-40,585327
-41,99524
-46,124268
-32,025146
-15,710449
-1,5106201
6,0424805
7,3516846
25,27771
21,450806
21,551514
24,874878
23,867798
29,80957
22,76001
26,889038
17,825317
15,408325
14,804077
10,272217
6,2438965
4,1290283
0,20141602
-0,10070801
-7,1502686
-9,667969
3,0212402
8,761597
13,897705
10,876465
5,7403564
-0,70495605
-10,272217
-13,998413
-23,666382
-33,233643
-29,003906
-29,30603
-30,615234
-35,44922
-38,168335
-30,917358
-43,00232
-26,385498
-19,134521
-6,4453125
1,0070801
-0,30212402
19,436646
3,0212402
18,429565
19,537354
27,493286
26,083374
28,701782
27,694702
33,636475
26,889038
27,191162
17,825317
16,314697
16,314697
1,3092041
1,2084961
2,3162842
5,0354004
-2,9205322
-2,5177002
-4,3304443
-24,069214
-25,881958
-37,060547
-37,664795
-45,822144
-53,475952
-50,152588
-48,843384
-44,210815
-44,51294
-34,84497
-22,457886
-15,206909
-6,3446045
-3,9276123
4,8339844
17,523193
15,206909
18,933105
25,579834
33,33435
37,564087
41,99524
27,896118
16,21399
10,675049
6,8481445
4,8339844
6,6467285
7,7545166
8,761597
7,2509766
9,667969
4,9346924
-0,30212402
-7,5531006
-6,7474365
-8,660889
-13,595581
-23,968506
-20,947266
-40,686035
-38,067627
-48,843384
-43,00232
-44,815063
-45,01648
-39,779663
-40,585327
-39,578247
-36,657715
-23,364258
-9,567261
-10,574341
-4,4311523
16,415405
8,963013
18,026733
27,493286
20,544434
20,947266
27,694702
29,406738
32,528687
38,87329
40,88745
45,52002
40,88745
39,678955
33,9386
32,32727
20,846558
26,385498
23,666382
14,703369
15,106201
6,9488525
-0,50354004
9,768677
8,056641
-6,6467285
-12,789917
-18,328857
-28,903198
-26,28479
-33,233643
-34,94568
-37,765503
-36,154175
-35,751343
-37,664795
-30,514526
-35,34851
-39,578247
-34,542847
-21,350098
-8,459473
3,0212402
7,3516846
15,408325
18,026733
20,141602
24,27063
31,622314
34,744263
38,36975
34,542847
31,420898
23,162842
21,954346
22,25647
18,429565
18,429565
21,350098
11,782837
6,0424805
4,0283203
8,963013
2,6184082
3,7261963
-7,6538086
-11,883545
-16,012573
-24,572754
-29,205322
-34,140015
-31,82373
-38,571167
-48,54126
-54,0802
-54,785156
-55,792236
-56,799316
-50,656128
-43,304443
-26,687622
-16,21399
-6,4453125
2,5177002
6,8481445
14,501953
15,408325
20,141602
24,77417
32,528687
25,579834
31,82373
28,500366
30,514526
23,464966
23,565674
24,069214
17,623901
14,602661
4,6325684
-3,4240723
-0,9063721
-2,5177002
-13,494873
-11,682129
-21,047974
-19,940186
-27,896118
-33,9386
-34,542847
-39,88037
-35,751343
-30,615234
-36,95984
-34,542847
-33,83789
-38,168335
-32,730103
-33,132935
-31,521606
-23,565674
-16,012573
-8,056641
8,056641
10,372925
11,682129
14,602661
27,896118
27,090454
23,464966
24,874878
26,184082
32,93152
28,601074
35,650635
42,599487
36,35559
35,44922
32,730103
23,364258
18,429565
7,2509766
5,5389404
2,2155762
2,7191162
-18,328857
-22,055054
-19,134521
-26,28479
-25,881958
-24,371338
-27,896118
-31,32019
-31,521606
-34,44214
-29,104614
-23,666382
-30,413818
-36,053467
-27,493286
-27,191162
-11,782837
-5,6396484
2,5177002
6,1431885
4,9346924
8,358765
13,394165
12,588501
21,853638
21,853638
24,572754
20,141602
21,853638
34,039307
23,062134
15,206909
17,523193
17,422485
10,070801
-4,3304443
-3,5247803
3,9276123
2,2155762
-3,2226562
-0,9063721
-10,070801
-15,710449
-21,853638
-20,343018
-22,357178
-35,85205
-30,615234
-36,557007
-36,85913
-38,168335
-36,95984
-37,36267
-38,168335
-33,032227
-23,364258
-13,998413
-7,5531006
2,0141602
8,459473
15,911865
17,825317
21,75293
31,924438
30,31311
31,018066
30,917358
31,018066
31,219482
25,78125
29,507446
25,479126
16,113281
18,328857
4,2297363
3,5247803
-7,7545166
0,60424805
-5,1361084
-10,574341
-17,422485
-22,860718
-28,097534
-33,535767
-34,94568
-33,33435
-39,88037
-39,37683
-38,168335
-34,84497
-36,85913
-32,83081
-40,182495
-37,96692
-30,615234
-21,954346
-14,401245
-4,7332764
-5,6396484
2,7191162
14,099121
13,595581
5,7403564
10,473633
16,113281
34,140015
18,328857
25,479126
22,659302
18,328857
28,399658
19,638062
29,205322
36,154175
31,924438
26,486206
20,040894
24,169922
15,106201
1,3092041
-5,1361084
-7,8552246
-10,876465
-19,335938
-8,358765
-28,701782
-31,622314
-29,608154
-31,118774
-33,132935
-37,664795
-38,168335
-38,47046
-40,98816
-33,636475
-26,28479
-19,134521
-9,970093
-1,6113281
1,8127441
13,394165
22,659302
21,853638
20,040894
25,076294
21,350098
25,378418
22,25647
15,106201
23,464966
31,723022
21,853638
19,940186
11,984253
3,6254883
-4,8339844
0
16,818237
8,358765
15,609741
-5,1361084
-3,0212402
-5,6396484
-16,818237
-23,464966
-24,572754
-28,601074
-31,018066
-29,910278
-30,514526
-41,290283
-35,046387
-33,43506
-35,34851
-34,94568
-23,364258
-5,4382324
0,70495605
3,9276123
12,588501
17,120361
23,26355
29,205322
33,132935
31,420898
29,406738
25,27771
26,385498
21,148682
19,638062
19,033813
16,21399
13,796997
14,300537
0,50354004
-2,6184082
-11,984253
-1,1077881
4,7332764
-0,10070801
-7,7545166
-11,581421
-9,466553
-21,551514
-10,574341
-24,472046
-15,609741
-28,097534
-27,29187
-28,29895
-30,212402
-33,636475
-40,585327
-42,49878
-50,857544
-44,0094
-38,974
-28,903198
-20,947266
-1,3092041
3,5247803
11,581421
18,026733
30,010986
30,111694
37,564087
34,140015
29,104614
31,118774
30,111694
19,940186
25,479126
26,184082
24,673462
15,408325
5,6396484
-1,5106201
-0,30212402
-6,5460205
-16,818237
-19,638062
-17,120361
-28,29895
-34,542847
-41,39099
-44,311523
-47,232056
-49,44763
-50,354004
-41,592407
-44,311523
-48,339844
-42,599487
-37,36267
-40,283203
-24,371338
-16,113281
-8,862305
5,0354004
8,761597
18,328857
24,572754
28,29895
37,161255
39,175415
40,88745
44,210815
36,35559
33,535767
25,27771
21,954346
12,387085
19,73877
22,25647
13,998413
6,2438965
3,8269043
0,20141602
5,7403564
-4,1290283
-12,185669
-20,947266
-26,28479
-29,406738
-34,542847
-24,472046
-26,989746
-37,96692
-32,42798
-38,974
-35,247803
-37,261963
-38,168335
-33,132935
-29,003906
-20,040894
-10,171509
-8,056641
10,876465
5,4382324
10,574341
22,25647
30,111694
33,43506
33,33435
33,43506
38,067627
31,723022
31,622314
26,486206
28,500366
26,687622
23,464966
17,422485
9,466553
8,862305
2,7191162
1,3092041
-0,20141602
-0,70495605
-14,300537
-14,804077
-23,062134
-26,28479
-28,903198
-26,184082
-31,118774
-32,125854
-40,98816
-35,650635
-34,94568
-31,32019
-29,80957
-35,85205
-24,371338
-23,162842
-15,609741
-11,581421
-2,1148682
6,4453125
10,977173
16,113281
23,867798
32,32727
44,110107
34,039307
44,613647
45,117188
41,99524
38,974
32,42798
26,083374
24,874878
15,408325
13,595581
15,005493
6,1431885
4,5318604
1,6113281
-6,8481445
-14,300537
-15,710449
-24,27063
-27,694702
-27,392578
-31,723022
-35,751343
-27,694702
-24,371338
-35,34851
-37,765503
-35,046387
-30,615234
-24,975586
-25,579834
-14,099121
-5,0354004
-1,9134521
2,6184082
1,3092041
4,7332764
2,9205322
12,387085
15,106201
11,782837
19,537354
18,22815
7,5531006
14,703369
28,601074
36,053467
42,800903
38,772583
34,34143
35,34851
26,28479
14,199829
11,077881
12,991333
15,307617
4,1290283
-8,056641
-16,918945
-22,357178
-31,32019
-33,032227
-26,989746
-31,018066
-35,650635
-29,30603
-28,903198
-26,28479
-24,169922
-23,867798
-22,357178
-12,789917
-2,5177002
3,2226562
4,5318604
10,775757
18,429565
19,839478
26,28479
29,30603
21,652222
19,134521
26,889038
24,975586
16,314697
23,062134
21,350098
15,307617
24,572754
4,2297363
0,50354004
-6,2438965
-3,1219482
-4,6325684
1,9134521
-2,0141602
-8,761597
-10,977173
-26,28479
-34,039307
-35,247803
-32,42798
-40,98816
-39,88037
-40,786743
-40,283203
-40,182495
-38,36975
-37,765503
-25,177002
-35,85205
-20,343018
-5,0354004
0
2,9205322
6,6467285
15,005493
20,343018
24,673462
20,947266
32,226562
36,154175
35,95276
38,772583
35,85205
28,903198
34,44214
24,572754
17,019653
11,682129
9,365845
7,3516846
4,1290283
3,6254883
1,1077881
-0,70495605
-8,358765
-6,9488525
-18,127441
-23,565674
-29,910278
-30,715942
-34,94568
-33,33435
-31,420898
-34,542847
-40,585327
-43,50586
-43,50586
-40,283203
-38,168335
-18,933105
-6,7474365
-9,970093
1,5106201
2,3162842
10,977173
13,293457
18,530273
20,343018
22,357178
19,335938
12,991333
20,040894
18,832397
21,652222
14,401245
17,523193
1,5106201
5,8410645
-1,9134521
-1,4099121
-0,30212402
9,869385
12,588501
10,574341
11,178589
4,3304443
-6,2438965
-13,192749
-27,29187
-25,27771
-29,910278
-26,083374
-34,643555
-27,593994
-36,557007
-35,751343
-32,93152
-36,154175
-28,198242
-19,638062
-5,1361084
-7,0495605
1,9134521
11,782837
11,581421
19,73877
24,572754
29,608154
25,881958
25,881958
29,608154
28,701782
33,33435
22,961426
23,26355
21,853638
16,71753
7,5531006
2,0141602
0
-3,5247803
-2,0141602
2,3162842
-5,9417725
-3,8269043
-12,890625
-15,005493
-26,385498
-32,42798
-36,35559
-36,053467
-32,125854
-36,053467
-33,233643
-35,247803
-40,38391
-32,125854
-33,33435
-29,30603
-21,853638
-6,3446045
-5,1361084
6,5460205
8,963013
17,422485
27,392578
24,673462
27,090454
25,982666
29,708862
35,44922
33,535767
30,212402
28,29895
20,040894
18,22815
12,689209
12,890625
8,660889
4,9346924
3,4240723
-0,30212402
-1,4099121
-7,0495605
-13,293457
-22,155762
-26,28479
-31,521606
-28,80249
-31,521606
-39,175415
-41,088867
-44,311523
-42,800903
-38,168335
-30,81665
-27,593994
-31,219482
-40,585327
-33,132935
-27,896118
-19,638062
-5,7403564
0,10070801
2,5177002
14,602661
20,040894
30,31311
30,514526
30,31311
34,643555
40,786743
37,96692
39,98108
32,93152
23,062134
31,723022
29,910278
30,111694
27,593994
22,659302
17,523193
10,372925
7,3516846
-2,5177002
-5,1361084
-12,689209
-24,472046
-24,572754
-24,572754
-21,24939
-29,708862
-25,076294
-34,643555
-34,94568
-34,542847
-30,413818
-36,154175
-26,083374
-19,537354
-6,7474365
6,8481445
3,9276123
12,487793
18,22815
19,638062
24,673462
24,371338
30,010986
30,31311
34,94568
32,42798
22,155762
25,076294
27,896118
17,523193
14,199829
13,494873
8,157349
-0,20141602
-2,3162842
-0,80566406
-2,5177002
-9,768677
-13,796997
-22,860718
-31,32019
-28,29895
-26,889038
-36,35559
-33,9386
-44,110107
-45,01648
-44,41223
-44,41223
-41,189575
-42,297363
-43,40515
-40,585327
-23,162842
-19,537354
-4,1290283
10,473633
19,436646
24,371338
20,74585
26,486206
26,78833
29,003906
30,917358
38,269043
38,36975
28,29895
36,154175
24,472046
20,645142
19,134521
11,984253
4,9346924
3,4240723
-4,1290283
0
-5,4382324
-13,394165
-12,286377
-22,76001
-25,177002
-30,31311
-40,182495
-39,175415
-46,02356
-49,346924
-44,41223
-39,779663
-34,542847
-33,636475
-26,687622
-24,069214
-19,638062
-10,977173
-5,6396484
-2,3162842
6,6467285
12,689209
19,73877
29,104614
27,29187
40,38391
33,9386
31,924438
30,917358
33,132935
34,240723
28,097534
24,27063
16,113281
14,804077
2,2155762
-0,10070801
-4,2297363
-2,7191162
5,3375244
1,0070801
2,9205322
8,761597
-2,2155762
-7,1502686
-13,192749
-24,975586
-32,528687
-28,500366
-29,406738
-36,657715
-32,629395
-33,9386
-26,184082
-23,464966
-20,74585
-18,73169
-8,560181
-0,9063721
-0,9063721
5,1361084
9,667969
19,134521
24,975586
27,896118
26,687622
46,5271
33,535767
39,47754
35,147095
34,94568
29,30603
27,191162
20,343018
18,530273
13,293457
1,3092041
-4,0283203
-5,3375244
-13,897705
-6,3446045
-10,272217
-27,392578
-36,657715
-35,751343
-36,154175
-41,290283
-43,00232
-43,807983
-45,318604
-39,779663
-41,793823
-39,578247
-37,564087
-36,95984
-35,549927
-31,420898
-18,630981
-10,473633
-4,0283203
7,3516846
10,473633
19,638062
18,22815
17,825317
19,638062
27,392578
24,77417
27,090454
25,982666
25,680542
25,076294
19,335938
19,134521
19,537354
6,8481445
-1,2084961
-1,0070801
-9,667969
-3,3233643
-2,4169922
-2,2155762
-11,984253
-22,357178
-19,335938
-25,177002
-26,989746
-27,593994
-26,28479
-32,125854
-34,744263
-27,694702
-32,125854
-37,564087
-32,730103
-32,226562
-26,78833
-18,22815
-5,3375244
-2,5177002
-3,1219482
12,084961
22,055054
22,055054
21,652222
32,93152
32,528687
32,730103
35,046387
36,35559
30,514526
32,730103
33,233643
33,233643
34,34143
25,881958
26,083374
10,876465
17,926025
17,926025
18,127441
11,380005
2,2155762
-11,178589
-11,782837
-24,472046
-27,191162
-31,723022
-39,88037
-45,822144
-48,742676
-53,375244
-57,70569
-73,41614
-78,45154
-73,71826
-51,5625
-34,84497
-16,818237
1,3092041
6,5460205
13,696289
15,206909
26,486206
35,147095
33,032227
36,053467
37,96692
39,37683
36,053467
28,701782
24,874878
24,472046
19,537354
19,033813
9,970093
7,3516846
-5,9417725
-5,0354004
-0,20141602
-7,0495605
-9,567261
-9,365845
-21,24939
-35,549927
-40,182495
-44,613647
-43,50586
-51,461792
-51,361084
-46,02356
-50,656128
-44,815063
-44,815063
-36,85913
-20,846558
-7,7545166
6,9488525
6,1431885
14,501953
22,558594
16,616821
12,286377
21,24939
31,018066
34,94568
36,557007
35,85205
25,177002
22,961426
16,314697
15,609741
12,689209
17,019653
11,883545
10,775757
9,768677
5,9417725
6,1431885
10,171509
5,4382324
0,80566406
-9,063721
-11,279297
-18,630981
-24,472046
-22,558594
-26,586914
-32,025146
-44,51294
-38,269043
-37,96692
-43,707275
-43,707275
-41,088867
-43,304443
-48,843384
-33,83789
-23,867798
-13,796997
-10,775757
-2,8198242
0,40283203
3,9276123
12,588501
11,380005
18,530273
13,998413
19,839478
15,408325
18,127441
20,24231
33,535767
20,544434
18,73169
24,874878
24,77417
23,062134
22,76001
23,565674
19,134521
12,689209
-0,60424805
-5,0354004
-13,998413
-12,084961
-16,21399
-18,22815
-22,25647
-26,486206
-32,93152
-32,730103
-25,579834
-31,32019
-37,161255
-35,147095
-32,025146
-17,120361
-4,2297363
1,8127441
4,5318604
10,977173
14,099121
18,328857
27,090454
31,723022
33,737183
34,542847
37,161255
35,147095
23,565674
17,22107
25,479126
13,394165
9,869385
8,056641
3,7261963
-4,8339844
-9,869385
-1,8127441
-0,30212402
-8,862305
-19,033813
-18,026733
-15,408325
-23,968506
-26,78833
-28,097534
-31,219482
-29,80957
-39,678955
-36,657715
-37,564087
-42,39807
-30,615234
-38,269043
-30,514526
-20,141602
-6,8481445
1,1077881
13,897705
10,574341
19,537354
21,954346
28,500366
34,140015
28,701782
37,161255
36,4563
34,44214
32,32727
29,30603
35,549927
27,694702
21,24939
16,616821
12,991333
2,0141602
0,30212402
2,9205322
-0,30212402
-2,3162842
-18,429565
-22,357178
-26,083374
-36,154175
-36,35559
-29,910278
-31,924438
-29,910278
-28,500366
-28,903198
-29,608154
-37,765503
-39,779663
-39,37683
-37,46338
-22,76001
-11,178589
-9,164429
-0,50354004
2,7191162
15,206909
19,73877
21,652222
25,076294
33,636475
35,44922
36,557007
33,535767
27,694702
20,947266
19,033813
12,387085
22,25647
15,408325
6,7474365
5,5389404
-1,2084961
-3,5247803
-6,1431885
-8,761597
-12,185669
-18,630981
-15,106201
-28,097534
-32,226562
-37,261963
-39,175415
-38,168335
-44,210815
-46,325684
-41,99524
-39,47754
-37,96692
-36,154175
-40,081787
-17,22107
-9,466553
0,70495605
-0,10070801
9,466553
14,501953
27,996826
27,79541
36,758423
34,643555
40,081787
42,800903
43,807983
32,32727
26,486206
20,24231
22,659302
15,206909
14,501953
2,0141602
6,5460205
-1,8127441
-0,10070801
-3,7261963
-10,574341
-16,012573
-27,694702
-28,097534
-35,046387
-32,83081
-37,564087
-37,46338
-40,48462
-38,269043
-39,88037
-39,276123
-35,34851
-41,89453
-38,671875
-40,283203
-22,457886
-5,4382324
-2,1148682
-0,30212402
13,092041
23,464966
33,535767
31,32019
33,032227
36,758423
36,154175
41,189575
36,557007
34,744263
26,687622
37,765503
26,486206
18,026733
16,415405
11,380005
4,7332764
0,10070801
8,358765
-2,7191162
-2,7191162
-25,27771
-31,219482
-36,95984
-46,224976
-48,54126
-45,117188
-40,686035
-35,046387
-53,67737
-53,878784
-58,914185
-52,468872
-56,900024
-46,224976
-36,35559
-2,3162842
0,9063721
0,50354004
8,963013
25,479126
43,203735
51,663208
64,85596
65,3595
66,76941
68,28003
68,17932
62,438965
64,151
64,151
55,993652
47,93701
39,98108
27,191162
14,501953
16,818237
-2,1148682
-10,675049
-26,385498
-34,542847
-39,88037
-41,290283
-46,627808
-50,656128
-45,318604
-37,36267
-45,92285
-46,42639
-47,634888
-46,02356
-37,261963
-48,641968
-42,800903
-48,138428
-40,081787
-28,097534
-16,918945
-14,401245
-10,574341
-8,963013
5,5389404
9,365845
8,963013
15,408325
23,666382
16,516113
29,708862
30,615234
30,81665
32,226562
29,910278
31,018066
23,26355
19,839478
19,839478
11,279297
6,2438965
9,265137
8,660889
-0,9063721
-12,588501
-15,710449
-25,27771
-36,35559
-35,34851
-39,074707
-31,118774
-34,34143
-31,622314
-30,715942
-35,95276
-38,168335
-38,269043
-28,601074
-28,903198
-22,558594
-7,8552246
-2,3162842
7,0495605
8,258057
13,092041
27,593994
31,723022
34,34143
37,765503
34,542847
29,003906
33,83789
32,32727
27,896118
21,24939
17,019653
13,293457
15,005493
11,782837
3,5247803
5,0354004
2,4169922
-0,40283203
-5,1361084
-13,192749
-18,429565
-24,673462
-27,191162
-13,696289
-39,779663
-39,98108
-42,800903
-40,081787
-38,87329
-40,786743
-41,39099
-41,793823
-41,592407
-44,311523
-27,896118
-18,429565
-15,509033
-5,5389404
6,5460205
17,22107
19,839478
23,565674
25,076294
26,083374
34,34143
41,39099
23,76709
31,521606
26,28479
26,083374
21,450806
19,23523
7,7545166
9,365845
10,070801
2,9205322
-1,4099121
-10,473633
-14,804077
-15,005493
-25,479126
-32,025146
-38,168335
-45,117188
-39,678955
-42,39807
-45,01648
-44,91577
-47,634888
-41,592407
-35,549927
-36,657715
-33,737183
-26,889038
-13,494873
-2,9205322
7,9559326
18,22815
29,003906
36,85913
42,800903
45,41931
50,05188
55,08728
45,620728
39,37683
39,578247
33,43506
33,233643
27,79541
27,29187
18,630981
15,710449
21,148682
-4,1290283
1,1077881
5,4382324
-1,9134521
-5,8410645
-11,883545
-19,335938
-20,24231
-23,26355
-26,28479
-31,118774
-31,723022
-34,039307
-40,585327
-35,751343
-37,36267
-40,38391
-36,657715
-28,500366
-27,694702
-15,408325
-8,560181
-7,0495605
8,963013
6,1431885
15,911865
27,29187
25,27771
27,896118
27,79541
29,910278
35,95276
32,528687
39,175415
24,975586
25,27771
21,148682
20,443726
11,984253
3,2226562
1,8127441
3,2226562
5,0354004
-1,0070801
-6,1431885
-11,581421
-30,514526
-11,480713
-25,479126
-36,053467
-37,564087
-41,592407
-30,212402
-39,578247
-38,772583
-36,35559
-33,535767
-35,046387
-36,154175
-37,161255
-23,062134
-14,401245
-2,4169922
3,9276123
8,056641
10,272217
15,509033
18,22815
21,954346
26,586914
25,378418
33,132935
21,24939
33,132935
27,493286
31,924438
21,954346
26,78833
31,723022
21,047974
21,450806
14,804077
13,595581
8,963013
4,8339844
-7,1502686
-20,544434
-13,998413
-20,24231
-25,27771
-30,917358
-24,472046
-25,177002
-30,81665
-33,132935
-27,29187
-12,789917
-36,35559
-31,32019
-24,975586
-10,574341
-8,056641
0,20141602
4,7332764
8,358765
17,926025
21,551514
31,723022
35,247803
39,779663
47,634888
46,224976
43,203735
33,636475
29,003906
19,134521
23,968506
19,335938
14,602661
2,4169922
-1,6113281
4,3304443
2,7191162
-3,2226562
-9,869385
-13,192749
-23,464966
-34,542847
-37,36267
-36,4563
-39,678955
-42,49878
-42,800903
-39,98108
-36,35559
-32,730103
-35,046387
-31,521606
-27,29187
-46,627808
-26,28479
-26,586914
-23,464966
-13,394165
-5,7403564
-2,0141602
8,459473
16,818237
23,968506
22,055054
38,772583
47,43347
51,5625
46,42639
46,92993
50,253296
42,700195
34,542847
30,31311
20,74585
17,926025
13,192749
10,070801
-5,7403564
-11,380005
-16,516113
-24,371338
-22,860718
-34,039307
-34,542847
-41,189575
-40,585327
-38,571167
-37,96692
-47,03064
-40,686035
-40,98816
-45,92285
-36,557007
-31,521606
-12,890625
-1,3092041
-5,7403564
6,6467285
6,4453125
7,9559326
13,796997
24,069214
27,996826
25,076294
25,982666
30,715942
19,537354
27,694702
17,019653
10,272217
8,963013
6,6467285
6,9488525
6,5460205
8,862305
5,6396484
11,380005
7,7545166
5,4382324
-7,1502686
-14,401245
-20,040894
-23,364258
-28,097534
-28,500366
-36,657715
-40,081787
-37,96692
-46,124268
-36,053467
-36,254883
-38,772583
-33,132935
-32,83081
-16,113281
-14,401245
-4,8339844
1,8127441
6,9488525
15,206909
18,630981
17,523193
19,638062
23,666382
31,924438
35,147095
34,140015
25,177002
21,24939
26,78833
18,530273
13,696289
14,300537
11,782837
7,5531006
0,40283203
0,70495605
3,9276123
-1,4099121
-3,7261963
-13,092041
-19,940186
-25,680542
-25,982666
-25,579834
-24,27063
-30,413818
-26,184082
-24,77417
-26,28479
-18,832397
-22,860718
-24,27063
-22,961426
-13,796997
-9,970093
0,20141602
4,8339844
10,070801
16,818237
22,659302
26,687622
28,80249
26,586914
31,018066
27,896118
24,572754
24,874878
23,867798
15,408325
12,387085
3,3233643
2,3162842
-2,4169922
-9,365845
-13,394165
-13,192749
-14,300537
-16,71753
-26,083374
-27,392578
-24,069214
-32,025146
-25,177002
-31,118774
-34,44214
-33,032227
-36,35559
-31,118774
-29,910278
-25,076294
-16,415405
-22,457886
-23,565674
-8,459473
1,7120361
13,394165
15,307617
22,558594
34,643555
28,29895
35,046387
42,599487
29,104614
30,917358
35,147095
20,24231
22,25647
28,097534
25,479126
21,148682
17,523193
12,890625
8,660889
2,1148682
-0,60424805
1,7120361
2,4169922
-6,0424805
-19,839478
-17,019653
-26,385498
-30,31311
-34,140015
-35,34851
-36,154175
-35,549927
-42,095947
-34,643555
-36,4563
-38,168335
-37,765503
-41,189575
-29,406738
-13,998413
-8,862305
-2,1148682
3,6254883
12,588501
16,918945
21,148682
24,673462
31,32019
32,83081
34,240723
34,140015
35,34851
30,514526
26,687622
23,26355
20,24231
17,72461
9,164429
6,1431885
-3,0212402
-7,8552246
1,1077881
-0,9063721
-9,365845
-19,436646
-21,551514
-31,521606
-31,018066
-39,678955
-33,9386
-41,793823
-45,52002
-38,269043
-40,88745
-43,707275
-39,98108
-36,35559
-36,758423
-32,83081
-26,989746
-12,991333
-5,5389404
-0,9063721
2,5177002
11,279297
13,696289
15,206909
24,975586
25,479126
22,25647
17,22107
16,314697
12,387085
34,643555
22,558594
20,24231
25,479126
33,535767
23,364258
13,394165
15,811157
11,480713
1,9134521
-10,876465
-11,077881
-11,782837
-15,408325
-26,486206
-25,479126
-25,177002
-30,917358
-26,486206
-29,507446
-32,629395
-39,37683
-37,664795
-38,47046
-33,032227
-29,910278
-15,206909
-2,2155762
4,6325684
14,703369
33,737183
28,701782
33,33435
41,592407
42,095947
49,246216
45,620728
35,650635
38,269043
32,528687
28,500366
26,78833
18,73169
20,24231
7,1502686
8,963013
-0,9063721
0,70495605
4,2297363
-7,6538086
-2,8198242
-13,494873
-25,27771
-25,479126
-37,564087
-40,98816
-34,039307
-32,83081
-30,81665
-32,42798
-35,95276
-35,549927
-34,240723
-34,84497
-35,147095
-27,493286
-12,588501
-4,1290283
-2,3162842
10,171509
14,804077
14,804077
23,968506
25,78125
32,528687
24,673462
28,399658
25,579834
26,486206
24,169922
17,72461
14,300537
16,21399
14,804077
9,667969
4,4311523
-2,7191162
-4,7332764
-2,0141602
-2,5177002
-10,775757
-12,387085
-20,645142
-27,29187
-35,650635
-37,664795
-38,571167
-45,620728
-42,196655
-44,210815
-43,40515
-42,599487
-35,650635
-30,111694
-30,81665
-17,72461
-7,8552246
-2,8198242
-1,4099121
4,5318604
9,869385
13,394165
8,358765
27,090454
32,42798
32,42798
30,81665
28,80249
27,896118
20,040894
14,804077
2,9205322
3,0212402
6,6467285
6,1431885
3,6254883
4,1290283
20,24231
26,385498
17,019653
2,3162842
-0,80566406
-9,265137
-19,23523
-23,364258
-25,78125
-27,392578
-33,737183
-33,032227
-36,758423
-39,37683
-37,564087
-38,974
-30,010986
-29,910278
-28,701782
-12,789917
-7,9559326
-6,6467285
0,70495605
5,4382324
11,984253
17,825317
22,457886
29,30603
30,917358
34,542847
38,36975
32,32727
24,27063
29,910278
24,572754
19,940186
16,616821
10,372925
7,5531006
-2,1148682
-8,560181
-6,4453125
-13,595581
-16,818237
-26,989746
-30,413818
-27,694702
-32,83081
-36,85913
-45,01648
-40,88745
-35,85205
-31,924438
-24,874878
-25,378418
-26,385498
-23,867798
-20,544434
-19,23523
-13,897705
2,9205322
12,689209
15,408325
18,026733
12,991333
15,408325
24,572754
35,95276
44,51294
43,203735
34,34143
25,881958
34,039307
32,93152
23,062134
24,874878
20,343018
14,099121
2,0141602
-9,567261
-6,8481445
-3,7261963
-2,7191162
-4,7332764
-9,365845
-18,832397
-25,076294
-31,723022
-34,744263
-32,528687
-36,758423
-33,132935
-35,85205
-36,557007
-32,42798
-34,94568
-46,42639
-42,90161
-34,542847
-19,033813
-10,171509
3,3233643
5,8410645
22,357178
5,9417725
16,616821
19,638062
27,392578
27,493286
34,744263
36,557007
36,657715
36,154175
29,003906
31,521606
23,666382
22,055054
14,300537
7,8552246
2,7191162
-3,7261963
7,9559326
-0,30212402
-3,9276123
-11,178589
-18,630981
-31,018066
-31,018066
-29,708862
-33,9386
-32,32727
-32,125854
-28,097534
-26,989746
-32,83081
-36,758423
-35,34851
-34,34143
-16,818237
-7,3516846
-1,9134521
-5,0354004
7,5531006
14,501953
20,141602
25,78125
32,32727
40,182495
35,549927
37,161255
35,147095
32,025146
31,32019
30,010986
22,155762
19,638062
20,544434
13,394165
18,429565
-6,7474365
-0,30212402
-9,365845
-9,869385
-12,689209
-24,874878
-28,500366
-41,189575
-44,815063
-48,339844
-48,94409
-57,20215
-51,05896
-56,295776
-57,504272
-52,670288
-42,700195
-34,94568
-31,521606
-17,72461
-3,1219482
11,380005
15,609741
31,723022
33,83789
43,40515
43,203735
56,09436
53,878784
47,03064
47,03064
47,332764
47,634888
37,261963
30,715942
26,486206
24,371338
24,371338
24,371338
24,371338
24,371338
24,371338
24,371338
24,371338
24,371338
24,371338
24,371338
24,371338
24,371338
24,371338
24,371338
-31,723022
-32,125854
-33,132935
-34,84497
-39,779663
-36,557007
-38,974
-39,276123
-23,867798
-9,567261
-18,933105
-4,3304443
4,2297363
7,1502686
15,106201
23,666382
29,406738
30,111694
27,694702
28,701782
19,335938
19,436646
15,609741
10,977173
13,394165
8,258057
12,487793
6,5460205
-2,8198242
4,4311523
8,056641
11,380005
12,890625
3,9276123
0
-2,7191162
-14,501953
-15,408325
-15,106201
-26,083374
-26,889038
-30,212402
-36,657715
-37,96692
-56,396484
-48,843384
-53,778076
-49,145508
-39,678955
-23,26355
-13,897705
-1,9134521
1,9134521
8,157349
11,984253
14,199829
18,429565
22,961426
31,219482
31,924438
35,650635
28,29895
26,28479
18,328857
8,761597
20,343018
15,005493
5,1361084
-1,0070801
-5,1361084
-2,7191162
-6,5460205
-4,7332764
-13,796997
-22,860718
-25,378418
-27,392578
-33,636475
-41,189575
-37,564087
-45,41931
-47,735596
-49,649048
-50,454712
-48,239136
-45,92285
-47,131348
-45,117188
-43,90869
-24,472046
-15,811157
-17,523193
-10,272217
0,50354004
8,862305
30,31311
32,42798
40,38391
53,67737
38,671875
37,664795
29,910278
41,592407
38,974
37,564087
37,765503
37,96692
25,378418
14,401245
6,1431885
9,667969
12,487793
0,9063721
-0,20141602
-10,574341
-16,314697
-24,27063
-27,896118
-34,34143
-48,843384
-75,027466
-81,170654
-84,89685
-80,76782
-76,7395
-75,027466
-68,984985
-64,35242
-54,0802
-36,154175
-19,839478
-9,265137
-3,1219482
-1,8127441
17,019653
31,521606
32,528687
41,793823
47,634888
52,267456
55,490112
56,69861
55,792236
56,295776
56,497192
44,210815
42,800903
33,233643
26,687622
18,127441
15,408325
6,2438965
0,40283203
-1,1077881
-8,358765
-14,602661
-23,464966
-21,551514
-21,853638
-19,335938
-24,069214
-23,76709
-29,608154
-28,80249
-32,730103
-41,39099
-49,850464
-60,12268
-59,61914
-49,246216
-51,864624
-51,159668
-43,40515
-26,586914
-29,507446
-10,977173
-14,804077
-7,7545166
-7,3516846
4,9346924
18,026733
28,29895
34,140015
39,37683
46,42639
43,807983
43,606567
44,815063
38,87329
20,947266
19,940186
25,680542
33,132935
28,399658
35,34851
9,265137
7,1502686
-7,9559326
-15,005493
-21,551514
-18,832397
-24,874878
-32,730103
-39,074707
-39,578247
-21,450806
2,8198242
17,825317
17,825317
25,881958
29,507446
24,572754
29,910278
25,680542
18,630981
27,493286
20,846558
9,970093
-1,9134521
-14,703369
-23,76709
-24,472046
-19,134521
-9,365845
-17,22107
-31,118774
-41,290283
-26,083374
-24,77417
-30,31311
-41,290283
-59,014893
-56,497192
-57,10144
-33,233643
-16,21399
-15,408325
-16,314697
-6,4453125
2,7191162
8,862305
16,113281
30,715942
32,025146
29,507446
29,708862
23,867798
15,911865
18,127441
22,76001
24,874878
24,472046
22,860718
28,198242
33,636475
28,701782
16,616821
2,0141602
-6,0424805
2,1148682
-4,9346924
-2,8198242
2,1148682
-7,0495605
-2,4169922
5,5389404
5,3375244
20,74585
27,593994
25,680542
40,585327
37,36267
31,82373
24,673462
4,3304443
-19,839478
-46,5271
-77,545166
-85,40039
-85,40039
-85,09827
-75,631714
-82,37915
-74,82605
-72,20764
-58,71277
-44,0094
-37,564087
-20,443726
-0,40283203
12,588501
32,93152
50,756836
62,338257
79,45862
92,55066
118,2312
142,40112
147,63794
134,04236
115,20996
93,65845
65,3595
41,592407
17,22107
2,9205322
7,3516846
29,608154
39,578247
55,288696
66,56799
75,4303
58,71277
45,822144
31,924438
10,977173
-12,185669
-38,87329
-42,095947
-48,94409
-58,309937
-57,000732
-62,74109
-63,74817
-70,79773
-72,509766
-67,17224
-40,48462
-38,671875
-19,537354
-36,85913
-47,634888
-52,770996
-46,5271
-15,005493
9,365845
33,33435
71,20056
89,02588
118,83545
141,89758
159,82361
153,3783
117,42554
80,86853
2,2155762
-70,89844
-110,17456
-108,26111
-104,03137
-92,14783
-67,37366
-51,965332
-42,800903
-26,687622
-13,897705
0
9,869385
8,963013
5,0354004
15,005493
-0,30212402
-6,3446045
-43,807983
-68,68286
-90,13367
-94,66553
-97,68677
-101,815796
-74,92676
-53,778076
-30,917358
-4,8339844
21,047974
42,599487
67,67578
61,23047
70,89844
61,029053
46,42639
39,88037
31,82373
21,450806
20,947266
21,148682
-9,970093
-40,786743
-60,827637
-64,151
-58,309937
-61,834717
-48,138428
-28,601074
-24,27063
-18,22815
-31,018066
-57,20215
-73,91968
-96,57898
-105,340576
-120,34607
-117,022705
-95,87402
-77,34375
-68,38074
-65,963745
-61,12976
-56,396484
-47,232056
-14,501953
-3,1219482
-0,20141602
2,7191162
13,394165
34,44214
42,800903
40,786743
47,332764
55,490112
64,25171
89,730835
103,326416
125,38147
110,37598
105,340576
93,759155
89,12659
77,041626
68,07861
65,15808
50,253296
49,246216
36,154175
19,638062
10,977173
-1,5106201
-14,199829
-19,73877
-26,28479
-26,486206
-36,053467
-46,42639
-37,261963
-44,815063
-44,41223
-46,224976
-46,224976
-39,98108
-35,85205
-19,638062
-0,80566406
16,918945
26,28479
27,79541
26,28479
29,910278
41,290283
52,871704
51,763916
46,42639
39,276123
36,053467
44,41223
44,51294
50,152588
37,060547
25,27771
21,853638
16,818237
6,7474365
13,998413
20,040894
23,464966
16,616821
12,991333
10,171509
2,4169922
-17,120361
-10,675049
-12,789917
-7,3516846
-0,10070801
9,466553
15,509033
27,694702
30,010986
28,097534
18,630981
15,106201
8,660889
-10,473633
-19,335938
-15,005493
-17,926025
-24,874878
-29,708862
-27,392578
-28,29895
-21,551514
-10,775757
-6,9488525
-1,2084961
2,9205322
9,768677
18,630981
40,585327
59,317017
65,86304
68,07861
60,12268
37,564087
20,443726
0,9063721
-20,846558
-41,39099
-53,67737
-50,454712
-47,232056
-44,91577
-45,41931
-42,297363
-40,98816
-35,147095
-20,443726
-0,80566406
7,6538086
13,394165
20,947266
32,730103
46,5271
35,85205
69,38782
106,8512
130,31616
119,64111
84,59473
61,532593
56,5979
10,977173
-38,974
-71,80481
-79,86145
-97,98889
-81,06995
-63,74817
-50,857544
-32,629395
-18,530273
-10,574341
-17,422485
-18,530273
-6,6467285
8,660889
14,199829
-10,574341
-45,620728
-51,461792
-34,240723
-15,206909
-10,574341
-20,040894
-39,779663
-50,756836
-41,189575
-47,836304
-64,05029
-72,006226
-78,95508
-65,86304
-42,800903
-30,81665
-15,106201
0,50354004
21,350098
35,751343
23,867798
22,055054
21,75293
23,968506
23,867798
-3,8269043
-24,069214
-29,30603
-22,860718
-30,917358
-47,836304
-59,014893
-81,7749
-80,4657
-75,83313
-68,07861
-61,532593
-53,778076
-34,44214
-20,040894
-15,206909
-16,71753
-17,422485
-17,825317
4,0283203
11,480713
15,509033
4,6325684
-12,286377
-24,673462
-35,751343
-42,297363
-42,800903
-44,210815
-45,52002
-55,288696
-54,281616
-54,885864
-41,592407
-17,72461
7,0495605
20,141602
20,040894
29,205322
41,99524
31,723022
29,205322
25,479126
29,104614
21,652222
14,501953
10,675049
5,6396484
-5,4382324
-5,9417725
-1,9134521
-1,1077881
-11,380005
-23,76709
-34,744263
-34,240723
-38,067627
-45,01648
-50,756836
-51,763916
-54,382324
-62,438965
-65,15808
-61,6333
-62,13684
-55,08728
-46,224976
-46,02356
-43,304443
-34,240723
-29,910278
-22,25647
-7,6538086
11,480713
14,602661
29,708862
48,94409
59,820557
50,253296
47,634888
39,175415
33,43506
27,79541
30,413818
36,85913
39,37683
45,822144
46,124268
35,650635
33,233643
18,429565
23,062134
17,019653
19,033813
13,293457
11,984253
3,7261963
-2,5177002
-7,5531006
-15,911865
-26,385498
-28,80249
-21,24939
-21,954346
-23,968506
-21,24939
-18,630981
-22,961426
-11,178589
-2,1148682
3,4240723
6,8481445
6,7474365
11,682129
16,818237
22,055054
22,558594
30,917358
37,36267
39,678955
32,83081
40,585327
30,715942
27,896118
20,443726
11,581421
16,71753
16,415405
9,466553
7,1502686
5,6396484
5,9417725
-2,1148682
-1,7120361
-3,0212402
-1,0070801
-9,164429
-15,206909
-25,177002
-27,593994
-35,046387
-38,87329
-45,01648
-42,800903
-41,592407
-40,38391
-46,5271
-49,44763
-29,910278
-25,78125
-15,206909
-6,3446045
5,1361084
6,7474365
4,1290283
7,7545166
17,22107
13,796997
15,609741
21,954346
18,73169
10,473633
17,22107
22,860718
7,9559326
2,1148682
-0,50354004
-5,8410645
-7,5531006
-12,588501
-6,6467285
-6,7474365
-18,933105
-27,29187
-25,479126
-39,37683
-36,254883
-31,521606
-36,758423
-37,564087
-49,850464
-55,08728
-50,656128
-42,599487
-34,84497
-38,571167
-37,36267
-35,44922
-25,27771
-11,682129
-9,970093
-19,033813
-26,687622
-7,3516846
4,9346924
10,775757
6,9488525
6,9488525
10,775757
19,436646
20,141602
21,954346
18,127441
11,178589
1,7120361
-7,6538086
-6,7474365
-8,862305
0,70495605
13,595581
23,162842
26,184082
15,206909
5,2368164
1,9134521
-4,9346924
-12,185669
-15,206909
-22,055054
-26,28479
-35,247803
-30,111694
-28,80249
-33,132935
-35,34851
-27,593994
-25,78125
-26,083374
-21,75293
-16,415405
-2,6184082
-1,5106201
-3,2226562
-11,581421
2,3162842
18,832397
24,169922
19,638062
28,80249
29,205322
32,730103
34,240723
35,44922
42,297363
37,060547
35,44922
29,80957
21,450806
7,5531006
-7,0495605
-14,501953
-18,630981
-20,947266
-17,623901
-13,192749
-33,737183
-34,542847
-34,44214
-29,708862
-36,254883
-32,025146
-34,643555
-37,96692
-34,744263
-41,290283
-42,599487
-41,99524
-47,332764
-44,210815
-25,479126
-16,516113
-4,1290283
4,9346924
13,796997
20,947266
26,78833
31,521606
27,29187
19,033813
39,074707
33,9386
29,507446
19,839478
25,680542
21,853638
13,998413
13,293457
0,50354004
-6,8481445
-5,7403564
-10,372925
-9,667969
-16,818237
-22,357178
-36,95984
-40,786743
-45,41931
-53,07312
-47,735596
-40,182495
-47,634888
-45,41931
-45,620728
-44,110107
-46,728516
-32,025146
-46,325684
-46,728516
-40,081787
-22,659302
-12,487793
-1,3092041
9,869385
23,76709
28,701782
50,55542
52,770996
52,06604
46,02356
41,793823
36,154175
33,83789
35,85205
34,039307
34,34143
23,26355
19,335938
14,804077
14,703369
5,5389404
12,890625
7,7545166
5,0354004
-0,20141602
-12,387085
-29,30603
-31,219482
-38,571167
-34,542847
-43,00232
-45,52002
-48,54126
-40,98816
-41,793823
-45,822144
-41,088867
-44,311523
-42,095947
-31,924438
-12,689209
-13,394165
-5,7403564
5,4382324
6,0424805
14,300537
10,372925
16,918945
25,881958
31,521606
30,715942
44,210815
41,99524
41,189575
29,708862
27,191162
19,033813
18,429565
8,761597
6,9488525
11,279297
5,1361084
2,9205322
-1,8127441
-4,7332764
-16,012573
-25,076294
-29,507446
-34,240723
-42,196655
-38,168335
-37,564087
-32,730103
-33,33435
-36,758423
-34,744263
-36,657715
-41,189575
-35,751343
-27,392578
-17,120361
-5,6396484
-3,0212402
5,1361084
3,5247803
10,574341
20,24231
25,479126
26,889038
26,184082
27,090454
29,104614
28,399658
26,486206
31,420898
33,83789
23,062134
21,24939
16,918945
10,372925
0,10070801
0
-4,2297363
-9,466553
-15,106201
-24,673462
-31,018066
-36,95984
-34,140015
-34,744263
-36,557007
-40,38391
-43,40515
-43,807983
-42,800903
-50,656128
-55,08728
-53,67737
-41,4917
-33,737183
-24,472046
-12,789917
-6,3446045
6,1431885
5,8410645
9,265137
11,480713
14,904785
24,874878
31,420898
32,93152
37,765503
36,4563
36,557007
27,896118
23,565674
21,148682
23,867798
17,019653
16,314697
11,782837
0,80566406
-1,2084961
-4,7332764
-15,106201
-23,565674
-32,528687
-33,636475
-38,168335
-40,182495
-42,800903
-40,182495
-55,08728
-49,246216
-49,145508
-37,564087
-45,721436
-43,40515
-44,110107
-34,34143
-21,350098
-15,005493
-15,307617
2,1148682
6,1431885
15,005493
11,480713
17,422485
15,609741
23,364258
31,420898
32,93152
34,643555
34,542847
38,571167
42,39807
34,542847
31,82373
31,219482
18,832397
15,811157
8,358765
16,818237
5,5389404
5,1361084
-7,5531006
-16,012573
-28,29895
-29,30603
-32,125854
-40,786743
-48,641968
-46,02356
-48,641968
-51,260376
-51,965332
-50,857544
-53,07312
-46,5271
-33,33435
-9,265137
-5,0354004
-3,5247803
7,7545166
12,286377
21,853638
30,81665
39,578247
40,686035
47,634888
47,43347
58,007812
55,59082
55,69153
48,742676
51,461792
40,585327
26,687622
14,602661
-2,3162842
-8,258057
-5,1361084
-6,9488525
-12,185669
-18,026733
-26,486206
-32,93152
-41,088867
-41,290283
-46,224976
-45,52002
-40,686035
-43,90869
-44,41223
-39,074707
-45,822144
-45,721436
-46,224976
-34,34143
-30,010986
-18,22815
-12,890625
-8,258057
0,9063721
2,5177002
6,1431885
14,099121
14,904785
36,053467
16,314697
22,25647
21,047974
12,689209
10,171509
9,667969
18,127441
13,696289
8,761597
6,5460205
-0,50354004
-1,0070801
5,0354004
9,567261
11,480713
12,588501
-0,80566406
1,8127441
-4,6325684
-5,2368164
-14,199829
-21,047974
-29,80957
-26,687622
-30,111694
-33,83789
-32,93152
-33,032227
-30,111694
-27,694702
-19,638062
-10,775757
2,9205322
11,883545
21,047974
11,279297
22,76001
21,350098
31,219482
40,48462
40,98816
35,95276
36,85913
21,853638
26,889038
23,162842
27,493286
25,78125
21,652222
17,120361
12,991333
8,862305
10,775757
8,157349
-0,10070801
-10,171509
-12,588501
-20,141602
-33,33435
-34,34143
-24,77417
-31,924438
-33,737183
-25,579834
-13,595581
-15,408325
-18,22815
-18,530273
-26,586914
-21,047974
-16,012573
7,8552246
19,033813
16,113281
20,040894
25,680542
25,27771
25,177002
38,36975
32,83081
41,189575
42,49878
41,189575
40,585327
30,514526
29,104614
22,76001
25,076294
23,867798
18,832397
8,258057
6,5460205
8,157349
-0,10070801
2,8198242
-6,5460205
-6,5460205
-14,703369
-8,459473
-27,29187
-26,486206
-31,723022
-32,226562
-27,896118
-30,212402
-28,29895
-33,132935
-34,34143
-35,549927
-32,83081
-20,74585
-5,4382324
-4,2297363
12,689209
11,581421
18,530273
19,638062
24,371338
27,392578
33,636475
44,613647
34,94568
33,737183
35,046387
30,715942
23,464966
21,450806
14,199829
11,178589
2,4169922
10,070801
-1,2084961
1,1077881
4,5318604
2,5177002
-3,8269043
-15,307617
-19,73877
-29,003906
-33,233643
-32,730103
-34,744263
-37,564087
-32,025146
-33,9386
-35,95276
-36,758423
-36,95984
-38,36975
-33,737183
-21,954346
-13,192749
-4,7332764
0,9063721
13,998413
16,314697
28,097534
30,212402
35,34851
36,254883
37,36267
42,599487
37,46338
39,37683
28,80249
28,701782
26,486206
28,80249
12,084961
3,5247803
-0,10070801
-3,9276123
-2,4169922
-7,8552246
-23,162842
-17,825317
-21,954346
-27,896118
-31,924438
-31,420898
-35,147095
-38,772583
-45,117188
-38,168335
-43,203735
-38,671875
-34,84497
-27,191162
-23,968506
-20,645142
-7,9559326
11,883545
19,638062
27,896118
23,867798
25,982666
30,31311
28,097534
37,261963
42,700195
40,585327
39,98108
39,175415
38,772583
34,643555
25,680542
25,479126
28,500366
14,199829
11,682129
7,9559326
-3,1219482
-0,10070801
-5,6396484
-3,5247803
-9,365845
-14,099121
-20,343018
-27,896118
-26,586914
-29,80957
-30,715942
-31,32019
-33,032227
-26,687622
-30,010986
-32,025146
-23,062134
-28,29895
-26,28479
-10,977173
-2,3162842
2,5177002
6,6467285
9,063721
18,429565
26,083374
22,76001
27,694702
33,9386
32,226562
29,507446
26,385498
26,989746
20,645142
17,422485
8,459473
10,070801
9,768677
1,0070801
-2,0141602
-9,567261
2,1148682
3,8269043
-8,862305
-19,638062
-24,77417
-19,940186
-26,889038
-34,84497
-33,535767
-25,378418
-31,622314
-15,911865
-23,26355
-23,26355
-32,125854
-29,910278
-38,168335
-31,723022
-20,846558
-12,588501
-7,3516846
-1,5106201
9,466553
9,567261
19,839478
26,586914
28,80249
35,44922
38,87329
34,94568
28,500366
18,22815
23,26355
18,73169
16,21399
14,401245
15,811157
7,6538086
6,9488525
-2,0141602
-11,178589
-7,3516846
-16,415405
-13,293457
-19,73877
-21,652222
-31,118774
-35,751343
-38,772583
-35,247803
-35,95276
-39,578247
-44,210815
-49,44763
-45,217896
-34,84497
-33,737183
-33,233643
-26,486206
-12,588501
-8,358765
-5,8410645
4,3304443
12,991333
8,761597
15,710449
24,874878
18,832397
21,350098
23,26355
25,680542
18,22815
15,206909
14,199829
12,890625
10,876465
15,206909
9,970093
2,6184082
-4,1290283
-1,4099121
9,164429
5,1361084
8,157349
2,7191162
-4,1290283
-14,099121
-22,055054
-30,917358
-37,060547
-36,95984
-37,765503
-35,95276
-43,40515
-41,592407
-38,671875
-32,730103
-25,680542
-9,970093
3,4240723
6,9488525
8,560181
14,300537
7,1502686
21,450806
27,191162
34,84497
40,182495
39,88037
49,44763
35,147095
37,36267
33,83789
25,579834
18,933105
18,530273
16,21399
3,2226562
2,3162842
0,9063721
-1,6113281
2,0141602
5,6396484
-9,265137
-19,73877
-24,572754
-24,975586
-24,371338
-28,500366
-33,33435
-35,34851
-36,35559
-30,615234
-35,751343
-35,34851
-31,32019
-34,542847
-31,723022
-17,623901
-7,3516846
5,5389404
11,178589
13,494873
6,4453125
20,443726
23,162842
23,464966
26,28479
27,79541
28,097534
27,493286
39,175415
11,782837
17,926025
11,380005
7,6538086
5,5389404
-9,869385
-10,272217
-7,9559326
-4,1290283
-0,80566406
-13,796997
-8,459473
-16,616821
-20,040894
-22,76001
-24,371338
-14,199829
-10,171509
-6,2438965
-1,1077881
-11,077881
-8,862305
-21,24939
-18,127441
-19,537354
-22,25647
-14,804077
-6,2438965
5,2368164
12,588501
7,2509766
17,120361
19,638062
25,78125
39,98108
42,599487
36,95984
37,765503
39,175415
29,708862
31,521606
29,910278
25,378418
20,141602
15,106201
9,265137
4,1290283
-1,1077881
0
-1,0070801
-2,5177002
-15,408325
-24,371338
-21,148682
-32,730103
-41,39099
-39,47754
-40,88745
-45,620728
-54,483032
-48,54126
-51,5625
-45,41931
-38,974
-42,196655
-35,751343
-14,300537
-19,940186
-11,782837
-6,1431885
-2,6184082
10,675049
13,897705
30,111694
27,090454
31,420898
32,32727
33,535767
30,31311
24,673462
21,652222
27,090454
24,169922
27,392578
27,694702
29,910278
14,401245
21,350098
16,113281
9,970093
5,0354004
-0,70495605
-5,1361084
-11,178589
-18,832397
-22,055054
-26,687622
-35,85205
-31,723022
-36,85913
-30,31311
-33,33435
-36,95984
-35,44922
-37,765503
-38,571167
-19,033813
-12,286377
2,6184082
1,7120361
5,0354004
13,998413
18,73169
25,479126
33,9386
44,210815
44,0094
47,93701
46,728516
41,99524
34,542847
32,42798
27,191162
28,701782
20,040894
18,832397
-1,2084961
-5,7403564
-4,3304443
-1,5106201
-7,8552246
-11,984253
-20,24231
-20,141602
-25,881958
-32,025146
-28,903198
-30,917358
-32,025146
-32,528687
-38,47046
-40,98816
-39,578247
-33,83789
-27,191162
-30,413818
-22,25647
3,9276123
-4,5318604
-0,20141602
13,595581
13,696289
20,141602
24,069214
31,32019
31,32019
34,039307
31,420898
34,643555
29,608154
23,26355
22,659302
9,063721
17,321777
12,991333
-1,9134521
0,10070801
-1,3092041
-4,8339844
-7,1502686
-2,7191162
-16,616821
-25,27771
-26,889038
-34,744263
-34,84497
-34,744263
-35,046387
-44,714355
-43,707275
-47,43347
-46,627808
-40,786743
-40,88745
-36,657715
-33,535767
-23,867798
-3,1219482
2,8198242
8,258057
13,796997
12,890625
23,968506
27,896118
35,34851
37,564087
33,535767
31,018066
28,097534
32,528687
29,30603
22,659302
20,443726
19,436646
14,703369
14,703369
6,8481445
0,60424805
-6,7474365
-12,487793
-14,804077
-16,918945
-26,687622
-28,29895
-34,744263
-35,34851
-32,125854
-34,94568
-44,51294
-48,641968
-57,000732
-56,396484
-51,663208
-58,511353
-45,217896
-40,98816
-31,723022
-15,005493
-4,7332764
-2,4169922
5,5389404
13,796997
28,29895
38,168335
50,958252
55,18799
48,03772
47,634888
42,39807
40,786743
41,189575
37,060547
36,4563
26,184082
26,385498
11,279297
7,7545166
3,2226562
4,1290283
6,4453125
-1,5106201
-8,560181
-11,984253
-27,896118
-29,910278
-31,521606
-32,025146
-33,132935
-34,44214
-35,34851
-39,175415
-36,053467
-32,528687
-36,557007
-35,046387
-34,140015
-25,680542
-8,963013
-5,4382324
2,1148682
8,560181
11,380005
16,918945
14,602661
21,148682
27,493286
27,996826
35,147095
29,30603
26,486206
27,392578
24,169922
20,24231
15,509033
10,171509
11,581421
5,5389404
-0,60424805
5,2368164
-3,7261963
-6,3446045
-7,4523926
-12,588501
-17,019653
-26,083374
-23,666382
-36,657715
-30,917358
-35,85205
-37,96692
-41,189575
-40,081787
-35,95276
-37,36267
-38,47046
-37,261963
-20,645142
0,70495605
-3,8269043
7,8552246
10,574341
13,494873
14,703369
23,565674
28,500366
30,31311
34,039307
39,98108
37,765503
32,42798
26,78833
25,479126
24,77417
22,357178
15,408325
14,602661
10,473633
4,9346924
2,6184082
4,5318604
-7,5531006
-10,675049
-14,401245
-21,24939
-22,558594
-33,43506
-29,30603
-39,37683
-40,081787
-33,132935
-41,088867
-35,650635
-41,189575
-40,98816
-37,564087
-36,154175
-29,003906
-12,890625
-0,20141602
21,652222
7,4523926
21,148682
30,31311
32,93152
36,254883
43,90869
37,36267
43,203735
37,96692
39,276123
30,111694
28,701782
25,177002
12,487793
17,825317
2,7191162
1,8127441
-2,4169922
-7,0495605
-2,9205322
-10,070801
-13,092041
-19,335938
-22,25647
-31,420898
-35,95276
-38,067627
-38,168335
-40,283203
-47,232056
-41,39099
-50,454712
-45,721436
-52,871704
-45,318604
-45,620728
-36,35559
-18,933105
-5,0354004
-0,40283203
6,5460205
20,040894
26,687622
34,140015
49,649048
32,528687
45,117188
44,210815
35,95276
33,83789
26,486206
25,881958
19,436646
17,422485
12,890625
2,3162842
2,9205322
7,5531006
8,761597
5,6396484
6,8481445
2,5177002
3,6254883
-8,963013
-15,408325
-20,443726
-26,687622
-19,638062
-32,528687
-32,125854
-30,514526
-31,622314
-27,29187
-27,493286
-40,686035
-35,751343
-26,889038
-15,408325
-3,1219482
3,0212402
15,408325
18,832397
20,544434
27,896118
34,94568
28,198242
36,85913
37,564087
31,723022
26,385498
25,881958
23,364258
15,106201
15,811157
12,387085
5,1361084
-9,164429
-14,703369
-10,775757
-15,005493
-24,371338
-11,581421
-17,623901
-21,75293
-23,26355
-21,954346
-18,832397
-16,818237
-19,335938
-26,28479
-26,083374
-22,25647
-26,687622
-30,615234
-31,118774
-13,998413
-17,22107
-3,9276123
2,7191162
12,387085
12,185669
19,033813
20,74585
26,385498
30,81665
24,77417
35,85205
29,910278
32,93152
27,996826
29,80957
29,507446
22,25647
23,464966
21,350098
17,120361
10,977173
2,9205322
-3,1219482
1,8127441
1,0070801
-8,358765
-14,703369
-17,22107
-26,083374
-37,36267
-34,94568
-23,464966
-46,224976
-44,210815
-40,585327
-29,507446
-36,557007
-36,95984
-34,44214
-30,81665
-25,78125
-6,7474365
0,30212402
-2,5177002
2,9205322
7,1502686
17,926025
18,328857
25,78125
23,464966
24,371338
26,28479
27,493286
29,80957
28,399658
17,422485
16,818237
11,984253
11,581421
2,8198242
5,3375244
-3,1219482
-12,387085
-5,3375244
-5,0354004
-8,660889
-19,839478
-25,982666
-28,500366
-30,514526
-43,50586
-42,196655
-42,297363
-42,39807
-43,103027
-46,124268
-41,592407
-40,182495
-37,060547
-35,046387
-26,486206
-17,523193
-8,560181
-2,2155762
6,1431885
13,293457
15,811157
12,387085
18,429565
29,910278
30,514526
40,38391
31,32019
32,730103
36,4563
32,226562
37,765503
40,182495
34,140015
22,055054
14,904785
13,796997
5,9417725
3,9276123
-2,9205322
-13,595581
-19,134521
-20,040894
-29,30603
-36,95984
-34,542847
-36,35559
-32,93152
-35,247803
-38,671875
-37,36267
-40,182495
-40,585327
-41,592407
-38,269043
-26,889038
-14,703369
-2,6184082
1,3092041
4,5318604
9,365845
14,501953
20,74585
27,392578
31,118774
26,586914
34,744263
32,730103
31,32019
27,694702
28,29895
25,479126
20,947266
9,768677
20,141602
-5,2368164
0,40283203
1,6113281
-2,5177002
-3,6254883
-11,279297
-12,890625
-24,975586
-25,479126
-22,860718
-29,708862
-32,025146
-30,31311
-33,032227
-44,91577
-37,161255
-35,85205
-34,744263
-33,132935
-30,31311
-22,357178
-6,7474365
0,80566406
-0,20141602
6,4453125
15,811157
14,804077
28,500366
32,93152
30,31311
27,090454
38,168335
35,549927
27,896118
20,24231
26,28479
16,918945
14,602661
12,588501
2,3162842
0,9063721
-3,0212402
-1,0070801
-5,7403564
-12,991333
-22,25647
-25,076294
-31,32019
-30,514526
-36,95984
-40,182495
-43,103027
-46,224976
-38,772583
-39,678955
-43,00232
-41,89453
-47,03064
-42,90161
-39,98108
-23,867798
-5,5389404
8,761597
14,199829
22,860718
21,551514
32,42798
41,189575
46,325684
40,38391
43,606567
37,765503
41,592407
39,88037
35,046387
31,32019
28,097534
16,21399
20,443726
9,466553
9,164429
10,675049
9,667969
7,1502686
4,7332764
-1,6113281
-9,466553
-17,019653
-27,896118
-22,357178
-25,378418
-28,903198
-29,708862
-34,140015
-35,34851
-38,772583
-34,94568
-34,643555
-37,261963
-35,34851
-23,464966
-13,595581
-3,2226562
-1,6113281
8,258057
17,523193
20,040894
24,874878
24,371338
25,076294
27,896118
31,521606
27,896118
26,184082
27,593994
25,479126
18,832397
9,164429
15,005493
8,761597
6,7474365
-0,30212402
-2,5177002
7,0495605
-5,9417725
-13,394165
-18,630981
-28,198242
-32,125854
-33,032227
-33,83789
-41,89453
-47,93701
-43,00232
-36,758423
-35,44922
-32,42798
-27,896118
-33,032227
-31,723022
-21,75293
-6,0424805
-4,1290283
-1,1077881
8,560181
12,286377
22,558594
25,680542
29,708862
35,751343
26,28479
27,896118
29,708862
32,730103
24,874878
20,141602
15,609741
15,408325
10,171509
5,9417725
0,9063721
-3,8269043
-2,5177002
-0,80566406
-12,789917
-13,394165
-23,26355
-27,29187
-32,125854
-33,33435
-32,42798
-40,786743
-33,032227
-42,800903
-34,44214
-43,90869
-44,0094
-40,48462
-44,91577
-35,95276
-28,399658
-17,019653
-1,7120361
9,164429
9,265137
14,300537
19,335938
26,486206
39,074707
37,765503
40,88745
41,793823
36,4563
31,924438
26,989746
20,443726
24,27063
38,47046
18,832397
11,782837
8,761597
1,5106201
-2,3162842
-4,5318604
-16,818237
-18,026733
-24,472046
-32,125854
-41,89453
-43,40515
-39,578247
-48,44055
-48,03772
-45,318604
-48,54126
-49,649048
-57,10144
-50,857544
-53,878784
-51,461792
-30,514526
-14,401245
4,1290283
12,991333
21,853638
31,521606
29,708862
34,34143
40,98816
47,735596
58,511353
60,72693
54,382324
56,5979
55,892944
48,843384
50,253296
34,240723
30,917358
21,75293
17,825317
11,782837
9,365845
6,9488525
-2,2155762
-0,70495605
-14,501953
-19,23523
-21,853638
-25,982666
-23,666382
-34,34143
-40,686035
-47,93701
-47,43347
-48,641968
-55,59082
-43,00232
-43,304443
-47,332764
-29,205322
-14,904785
-2,2155762
13,394165
17,523193
36,85913
47,53418
45,52002
40,081787
37,46338
33,83789
27,694702
24,572754
23,565674
24,27063
21,75293
12,387085
16,314697
12,387085
27,996826
23,76709
19,033813
22,860718
17,926025
13,897705
9,970093
-0,30212402
-3,1219482
-10,070801
-13,897705
-18,429565
-23,464966
-23,26355
-31,82373
-49,0448
-56,295776
-63,64746
-81,97632
-71,80481
-60,12268
-45,318604
-24,472046
-16,616821
-16,012573
-5,1361084
11,480713
23,968506
12,588501
25,78125
24,472046
24,874878
25,076294
28,29895
28,399658
21,75293
11,480713
16,21399
13,394165
13,494873
7,2509766
5,4382324
-9,063721
-2,1148682
-5,0354004
-12,286377
-6,2438965
-31,521606
-23,666382
-24,27063
-35,95276
-36,4563
-36,4563
-41,693115
-38,36975
-43,00232
-42,297363
-31,622314
-37,564087
-26,28479
-27,29187
-25,177002
-18,933105
-8,660889
-4,7332764
1,2084961
-1,5106201
6,9488525
16,818237
22,25647
17,422485
18,933105
26,486206
32,528687
28,198242
29,104614
34,94568
26,687622
21,148682
22,25647
15,811157
10,775757
4,6325684
10,876465
4,3304443
-4,3304443
-9,365845
-2,9205322
-25,579834
-25,680542
-27,593994
-33,535767
-31,219482
-31,924438
-29,30603
-34,542847
-32,528687
-36,758423
-37,46338
-34,140015
-40,88745
-36,053467
-10,171509
-14,501953
-0,10070801
3,5247803
14,804077
21,047974
21,853638
23,76709
29,708862
28,80249
29,910278
21,853638
21,652222
19,940186
24,169922
13,192749
18,73169
21,24939
21,652222
8,862305
12,991333
18,832397
13,394165
17,22107
6,7474365
7,2509766
-4,8339844
-4,8339844
-23,464966
-28,601074
-16,616821
-18,530273
-24,975586
-25,27771
-32,025146
-28,29895
-27,694702
-30,917358
-18,026733
-25,076294
-9,667969
2,7191162
6,7474365
7,5531006
11,480713
18,127441
25,579834
22,659302
27,593994
33,43506
32,125854
32,83081
33,535767
31,723022
25,881958
14,300537
12,991333
10,473633
8,157349
-0,50354004
-5,0354004
-4,5318604
-6,8481445
-7,4523926
-11,480713
-23,26355
-27,29187
-37,86621
-33,43506
-34,34143
-41,39099
-40,786743
-39,578247
-39,37683
-45,01648
-44,0094
-45,41931
-44,51294
-31,924438
-22,961426
-13,394165
-1,3092041
-0,10070801
3,7261963
7,9559326
12,387085
22,659302
24,472046
27,191162
29,104614
30,81665
26,989746
28,097534
30,111694
27,79541
14,804077
15,005493
9,567261
7,7545166
1,1077881
-0,30212402
2,7191162
7,1502686
1,5106201
-12,789917
-15,609741
-15,408325
-27,29187
-20,443726
-22,055054
-25,378418
-33,132935
-36,557007
-33,132935
-42,39807
-35,85205
-29,910278
-34,240723
-32,226562
-21,24939
-13,394165
0,20141602
-0,10070801
9,164429
20,947266
18,832397
38,87329
35,549927
36,254883
42,599487
39,98108
42,196655
41,592407
22,558594
25,177002
23,464966
18,429565
10,272217
6,5460205
3,7261963
-0,9063721
-1,5106201
-7,5531006
-9,265137
-11,782837
-4,5318604
-17,120361
-27,392578
-35,95276
-35,650635
-38,772583
-34,240723
-42,095947
-47,53418
-42,599487
-39,779663
-40,585327
-40,182495
-38,168335
-33,33435
-13,293457
-7,9559326
2,5177002
6,9488525
9,567261
13,192749
15,509033
17,825317
26,889038
24,371338
23,867798
26,28479
24,975586
26,889038
21,148682
23,464966
14,602661
14,804077
18,127441
19,839478
16,314697
24,975586
17,019653
23,867798
11,279297
5,7403564
-8,358765
-12,185669
-22,76001
-23,364258
-25,076294
-26,385498
-33,132935
-31,420898
-34,542847
-35,95276
-35,34851
-34,240723
-27,996826
-15,307617
-5,2368164
1,7120361
3,2226562
6,1431885
23,26355
24,874878
27,392578
27,090454
30,715942
34,94568
31,622314
30,917358
37,36267
32,025146
25,579834
23,26355
14,401245
6,5460205
6,7474365
5,5389404
-2,3162842
-2,7191162
-6,8481445
-7,1502686
-13,998413
-16,918945
-18,328857
-25,479126
-31,420898
-28,399658
-26,687622
-35,95276
-34,542847
-36,95984
-27,996826
-41,39099
-39,98108
-39,779663
-42,095947
-24,77417
-9,164429
-6,8481445
2,2155762
3,7261963
12,185669
17,019653
23,565674
24,069214
30,212402
28,29895
33,233643
32,42798
32,42798
27,090454
20,141602
20,040894
13,394165
18,73169
12,689209
5,5389404
2,4169922
-0,50354004
2,6184082
-4,5318604
-3,5247803
-7,1502686
2,9205322
3,6254883
-2,4169922
-6,7474365
-19,23523
-38,974
-53,475952
-68,17932
-73,41614
-78,85437
-60,928345
-60,72693
-55,490112
-34,94568
-23,76709
-12,084961
2,3162842
12,286377
9,466553
16,71753
25,78125
23,565674
24,371338
37,96692
32,83081
31,32019
28,701782
23,062134
23,062134
15,206909
17,321777
11,480713
9,567261
0,9063721
4,9346924
-0,10070801
7,3516846
2,5177002
-3,0212402
-8,862305
-11,883545
-22,357178
-25,881958
-29,910278
-38,168335
-42,800903
-39,578247
-40,98816
-37,86621
-35,34851
-36,95984
-36,154175
-33,233643
-26,385498
-15,206909
-1,3092041
7,7545166
9,970093
17,72461
26,889038
26,889038
38,87329
33,032227
33,83789
34,140015
34,34143
32,226562
31,622314
26,78833
34,140015
29,80957
22,860718
17,120361
13,494873
8,358765
5,3375244
2,2155762
-3,8269043
-6,5460205
-8,862305
-17,019653
-20,846558
-38,571167
-34,84497
-38,671875
-44,210815
-38,571167
-44,0094
-46,829224
-36,35559
-47,332764
-42,800903
-33,33435
-21,450806
-13,293457
4,0283203
15,911865
18,630981
19,436646
23,76709
10,272217
33,43506
43,40515
42,800903
49,749756
46,02356
48,239136
35,85205
37,36267
28,701782
23,26355
17,825317
10,675049
3,6254883
2,6184082
6,2438965
3,4240723
4,4311523
-8,560181
-13,796997
-12,890625
-23,867798
-28,500366
-31,521606
-31,82373
-29,910278
-39,074707
-37,664795
-41,290283
-44,613647
-38,067627
-36,557007
-31,018066
-25,378418
-7,3516846
-9,164429
-1,9134521
1,8127441
8,761597
18,328857
22,357178
26,586914
33,9386
32,93152
36,758423
38,168335
32,528687
31,521606
34,34143
26,486206
16,616821
12,588501
6,6467285
12,991333
4,1290283
0,70495605
3,4240723
-1,4099121
-9,970093
-14,804077
-18,530273
-21,652222
-25,378418
-28,903198
-27,191162
-30,81665
-30,615234
-33,737183
-33,43506
-32,528687
-32,125854
-31,521606
-27,896118
-16,516113
-8,056641
3,4240723
12,689209
13,595581
18,22815
24,572754
43,40515
47,43347
52,670288
59,417725
59,921265
45,620728
48,641968
48,641968
36,4563
31,924438
25,076294
26,78833
12,185669
5,0354004
-2,5177002
-5,1361084
-3,6254883
-8,862305
-18,026733
-27,694702
-49,145508
-44,210815
-46,92993
-46,5271
-49,649048
-53,979492
-58,007812
-52,166748
-52,166748
-52,267456
-50,857544
-51,864624
-48,239136
-28,500366
-17,422485
-3,7261963
6,7474365
-1,5106201
8,056641
18,530273
15,206909
23,666382
21,24939
27,79541
30,413818
32,730103
25,78125
20,947266
14,501953
16,314697
15,811157
15,911865
10,675049
21,853638
-0,10070801
0,9063721
1,7120361
1,4099121
-5,5389404
-22,659302
-25,076294
-33,83789
-27,29187
-30,514526
-43,103027
-31,82373
-32,730103
-35,247803
-41,39099
-39,37683
-30,917358
-39,578247
-38,974
-32,42798
-10,574341
-6,3446045
2,2155762
5,2368164
19,134521
15,206909
12,084961
23,666382
21,75293
30,81665
28,903198
32,025146
34,94568
30,212402
29,708862
18,127441
13,998413
8,258057
6,1431885
4,0283203
-4,6325684
-4,8339844
-2,7191162
-1,8127441
-3,8269043
-13,796997
-16,113281
-16,415405
-29,910278
-28,903198
-33,83789
-36,758423
-33,33435
-20,040894
-29,104614
-27,896118
-25,680542
-26,889038
-27,996826
-14,199829
0,60424805
-3,5247803
5,0354004
11,682129
17,422485
26,184082
31,118774
30,111694
41,189575
26,78833
41,290283
37,765503
35,44922
33,233643
35,549927
29,104614
23,062134
14,602661
3,9276123
3,6254883
-0,10070801
3,3233643
-7,2509766
-16,918945
-21,853638
-26,687622
-37,96692
-45,92285
-46,829224
-46,224976
-44,815063
-47,634888
-41,592407
-47,735596
-52,56958
-55,69153
-56,19507
-42,800903
-41,693115
-24,169922
-18,328857
1,3092041
0,50354004
18,026733
26,28479
37,765503
39,578247
45,117188
43,807983
51,260376
47,634888
34,643555
25,78125
25,479126
27,896118
23,26355
16,314697
14,199829
9,063721
-1,5106201
-3,5247803
-6,7474365
-0,10070801
-6,7474365
-12,084961
-14,703369
-22,457886
-25,881958
-30,514526
-29,507446
-18,22815
-33,43506
-38,974
-40,88745
-38,269043
-36,35559
-31,521606
-35,247803
-26,989746
-17,926025
-3,2226562
0,10070801
4,9346924
10,372925
19,033813
21,652222
27,79541
29,708862
27,493286
46,42639
30,413818
27,593994
30,615234
28,601074
24,371338
25,881958
17,523193
17,623901
3,6254883
6,1431885
3,6254883
-1,6113281
-1,5106201
-7,6538086
-16,113281
-26,687622
-32,226562
-40,182495
-40,98816
-46,02356
-52,56958
-40,283203
-44,91577
-32,125854
-27,29187
-19,23523
-22,055054
-20,544434
-4,8339844
7,0495605
21,24939
25,680542
23,666382
23,867798
38,772583
43,103027
46,5271
49,246216
44,613647
30,514526
26,486206
8,660889
8,258057
13,595581
17,523193
15,509033
18,429565
19,23523
11,380005
9,164429
6,8481445
8,963013
5,0354004
-3,9276123
-9,164429
-15,206909
-20,645142
-21,853638
-27,191162
-34,039307
-34,34143
-36,657715
-39,678955
-41,189575
-43,40515
-36,154175
-34,744263
-40,182495
-41,693115
-27,593994
0,20141602
7,2509766
4,5318604
9,768677
15,710449
12,991333
20,645142
23,364258
28,29895
28,198242
33,132935
33,636475
25,479126
23,867798
26,486206
24,27063
12,890625
10,977173
8,560181
5,8410645
0
-1,5106201
-3,6254883
-8,560181
-16,314697
-23,76709
-27,694702
-32,93152
-37,765503
-40,38391
-38,87329
-40,585327
-38,168335
-44,311523
-36,95984
-32,42798
-38,36975
-36,053467
-32,025146
-22,860718
-11,077881
-2,2155762
2,4169922
6,9488525
14,199829
14,804077
18,429565
15,811157
18,22815
30,715942
20,343018
13,796997
9,164429
1,7120361
0,9063721
7,0495605
-5,0354004
5,5389404
-0,40283203
0,70495605
8,963013
8,056641
10,675049
6,4453125
5,3375244
-5,4382324
-14,401245
-21,853638
-19,73877
-20,846558
-31,118774
-24,874878
-20,443726
-20,040894
-25,982666
-28,601074
-21,652222
-33,132935
-30,81665
-16,415405
-6,7474365
-1,5106201
4,2297363
16,818237
16,616821
27,392578
29,003906
33,535767
36,758423
33,132935
37,261963
40,98816
34,643555
30,212402
23,666382
18,530273
23,364258
21,148682
13,293457
5,4382324
1,6113281
2,8198242
-0,9063721
-5,4382324
-13,092041
-25,881958
-32,226562
-35,44922
-41,088867
-43,807983
-49,95117
-50,05188
-54,483032
-54,785156
-51,663208
-58,410645
-51,965332
-61,6333
-51,864624
-32,629395
-19,839478
-9,567261
-1,3092041
8,258057
15,609741
21,450806
31,622314
37,564087
51,5625
64,151
57,60498
60,72693
58,20923
51,763916
41,592407
31,924438
25,479126
18,832397
18,22815
17,422485
14,401245
15,911865
6,8481445
-4,7332764
-8,862305
-15,206909
-16,516113
-28,80249
-29,910278
-30,212402
-34,34143
-43,606567
-37,36267
-38,87329
-41,693115
-36,35559
-35,34851
-41,290283
-34,140015
-17,019653
-14,804077
-8,963013
0,60424805
5,2368164
15,307617
26,889038
27,191162
25,479126
29,406738
31,723022
34,94568
34,240723
24,27063
30,514526
23,162842
16,113281
9,768677
8,761597
2,1148682
-2,1148682
2,9205322
-2,5177002
-5,2368164
-8,862305
-20,040894
-22,155762
-29,205322
-33,33435
-40,98816
-44,41223
-47,232056
-48,03772
-46,325684
-41,189575
-46,5271
-42,39807
-37,86621
-41,4917
-37,060547
-26,989746
-12,588501
-12,084961
-2,4169922
5,3375244
5,1361084
7,2509766
11,984253
13,394165
17,22107
18,530273
16,918945
18,127441
15,206909
18,026733
13,494873
16,415405
2,3162842
7,8552246
8,157349
-7,8552246
-4,0283203
0,80566406
-8,560181
-12,789917
-17,623901
-24,472046
-18,933105
-15,811157
-17,019653
-27,694702
-30,111694
-33,33435
-35,34851
-34,84497
-34,542847
-35,34851
-37,765503
-36,254883
-32,125854
-21,954346
-10,977173
-6,3446045
11,380005
8,056641
20,040894
24,874878
27,896118
29,406738
38,067627
38,067627
34,140015
31,118774
30,010986
26,28479
22,76001
25,982666
11,782837
15,307617
7,1502686
3,9276123
8,761597
20,645142
-0,60424805
-2,3162842
-11,380005
-16,21399
-22,457886
-29,708862
-31,723022
-36,85913
-32,629395
-35,95276
-35,95276
-39,98108
-37,765503
-33,233643
-39,88037
-35,751343
-36,35559
-17,019653
-13,595581
-4,7332764
1,4099121
7,2509766
10,574341
16,818237
18,22815
19,23523
28,80249
25,78125
23,76709
30,31311
25,479126
22,860718
22,055054
14,602661
13,595581
13,092041
11,984253
9,063721
7,5531006
18,127441
8,761597
15,408325
11,380005
-6,4453125
-5,0354004
-14,703369
-17,321777
-23,464966
-27,996826
-30,81665
-32,226562
-32,93152
-33,83789
-35,44922
-36,35559
-32,730103
-30,111694
-19,839478
-5,6396484
4,3304443
15,609741
14,300537
22,25647
29,910278
29,104614
30,81665
37,96692
30,31311
34,542847
30,413818
33,737183
31,32019
25,680542
17,523193
17,623901
12,185669
5,6396484
3,8269043
5,4382324
-0,40283203
-4,0283203
-7,2509766
-12,789917
-23,867798
-20,846558
-27,191162
-32,93152
-34,542847
-38,974
-39,779663
-38,269043
-32,93152
-34,94568
-35,95276
-30,212402
-28,500366
-21,047974
-12,991333
-9,667969
-1,2084961
4,5318604
10,574341
16,314697
17,422485
27,191162
31,82373
32,93152
36,557007
34,643555
31,118774
27,79541
23,968506
21,75293
23,867798
16,113281
3,4240723
6,2438965
-2,3162842
-0,50354004
1,4099121
-1,5106201
-7,4523926
-16,415405
-18,630981
-25,076294
-35,85205
-30,615234
-41,89453
-41,4917
-39,37683
-45,41931
-43,807983
-43,606567
-41,189575
-36,95984
-39,678955
-28,601074
-18,832397
-3,4240723
2,8198242
4,1290283
11,883545
23,364258
25,680542
32,226562
26,989746
34,34143
39,37683
41,088867
55,490112
47,131348
42,095947
35,751343
27,896118
24,673462
20,141602
19,73877
2,1148682
-3,4240723
1,0070801
-12,185669
-11,380005
-16,415405
-29,708862
-34,94568
-41,39099
-42,90161
-46,5271
-43,707275
-48,742676
-46,627808
-46,5271
-37,36267
-30,615234
-24,472046
-25,881958
-31,32019
-1,8127441
-3,2226562
-3,1219482
10,574341
19,839478
21,450806
22,558594
28,80249
31,924438
40,38391
34,240723
32,93152
34,643555
37,664795
32,528687
33,9386
27,694702
20,040894
16,012573
18,429565
7,1502686
-3,1219482
2,4169922
-2,5177002
-10,977173
-17,019653
-18,630981
-16,21399
-40,48462
-38,47046
