Samples
145,72449
143,10608
135,35156
131,72607
127,093506
117,82837
107,55615
-136,45935
16,71753
7,2509766
2,0141602
1,7120361
-6,8481445
-17,22107
145,72449
143,10608
135,35156
131,72607
127,093506
117,82837
107,55615
-136,45935
-637,9852
-955,8197
-1121,7865
-1185,2325
-1181,3049
-1131,253
-894,4885
-805,46265
-722,37854
-637,5824
-3299,0935
1833,0872
-559,03015
-488,1317
-417,73682
-358,5205
-299,00208
-244,92188
-188,42468
-135,55298
-2,3162842
33,33435
75,22888
107,55615
3275,3264
1773,8708
130,61829
143,50891
173,31848
188,02185
196,98486
202,02026
212,29248
209,9762
221,2555
214,00452
216,42151
212,19177
3275,4272
1767,4255
219,94629
216,62292
216,01868
206,35071
200,71106
190,84167
186,30981
186,30981
191,44592
189,53247
190,33813
192,95654
3249,646
1768,634
187,11548
186,1084
188,12256
194,76929
218,7378
224,07532
231,02417
239,48364
272,31445
272,31445
275,235
283,59375
3275,3264
1749,7009
284,70154
281,5796
281,37817
277,9541
270,09888
260,4309
258,61816
252,27356
193,25867
180,67017
159,11865
152,1698
145,12024
137,56714
137,36572
130,41687
127,093506
125,18005
124,97864
129,00696
128,10059
122,36023
133,3374
139,07776
149,04785
158,81653
174,52698
178,35388
182,08008
198,09265
207,5592
218,23425
229,31213
222,5647
216,2201
218,93921
208,56628
202,02026
196,68274
190,64026
186,00769
177,74963
173,6206
165,46326
154,78821
146,32874
145,01953
133,03528
126,18713
114,505005
104,937744
89,02588
86,709595
84,2926
70,3949
69,28711
68,68286
68,38074
67,07153
69,488525
68,58215
72,30835
68,58215
76,638794
93,0542
101,916504
108,86536
119,33899
124,575806
138,67493
143,71033
148,64502
156,60095
163,65051
165,66467
163,24768
156,19812
161,63635
152,27051
145,9259
137,96997
131,32324
130,61829
116,922
109,06677
104,434204
103,02429
89,730835
78,75366
64,453125
57,10144
47,836304
28,500366
30,413818
36,35559
30,917358
34,744263
34,240723
35,95276
36,657715
47,43347
40,786743
35,650635
43,50586
63,345337
76,7395
83,28552
90,43579
103,930664
121,554565
131,52466
130,61829
132,83386
140,28625
136,25793
140,08484
136,45935
134,6466
129,6112
116,922
119,64111
113,90076
101,51367
101,71509
84,49402
85,29968
84,49402
77,34375
68,17932
55,69153
49,246216
37,261963
27,896118
20,040894
10,473633
11,682129
9,365845
11,380005
6,2438965
15,911865
13,998413
18,22815
18,933105
24,472046
38,772583
51,965332
62,74109
71,60339
71,90552
86,30676
100,20447
103,930664
111,28235
113,39722
114,505005
117,022705
118,533325
110,77881
104,03137
106,34766
89,42871
93,96057
81,170654
77,84729
66,16516
57,907104
57,302856
39,47754
41,39099
32,629395
17,523193
9,970093
2,7191162
-6,5460205
-1,1077881
-7,5531006
-10,775757
-11,883545
-12,991333
5,8410645
-2,2155762
2,5177002
-6,2438965
7,1502686
23,867798
26,586914
36,4563
44,41223
49,44763
60,928345
74,42322
81,06995
85,702515
93,45703
91,8457
96,8811
91,34216
95,773315
88,62305
87,11243
74,82605
76,538086
72,9126
53,878784
51,05896
47,232056
47,232056
40,98816
28,097534
18,429565
8,761597
-0,9063721
-8,258057
-11,279297
-17,321777
-20,544434
-13,595581
-17,120361
-17,422485
-8,560181
-22,055054
-17,22107
-14,099121
-7,4523926
7,0495605
15,408325
34,34143
43,50586
54,483032
66,970825
75,83313
74,2218
91,744995
88,42163
91,8457
92,34924
78,95508
89,52942
83,28552
74,020386
76,135254
69,38782
63,546753
50,656128
51,361084
47,232056
43,807983
37,46338
28,399658
26,889038
13,595581
-0,9063721
-9,164429
-9,970093
-16,314697
-23,968506
-26,687622
-25,680542
-25,881958
-14,703369
-14,401245
-14,501953
-17,019653
-17,422485
1,8127441
16,21399
27,996826
31,622314
38,671875
56,497192
50,958252
63,74817
69,488525
76,84021
82,88269
87,31384
76,94092
64,25171
66,467285
60,424805
55,59082
53,878784
38,974
33,636475
32,025146
33,9386
29,507446
27,392578
22,155762
11,581421
6,6467285
-2,9205322
-26,889038
-17,22107
-29,406738
-29,205322
-33,032227
-31,219482
-25,680542
-30,413818
-28,500366
-26,687622
-26,687622
-18,73169
-6,9488525
6,0424805
20,040894
27,493286
37,161255
50,756836
59,820557
68,58215
68,78357
69,68994
70,59631
69,992065
80,86853
78,75366
66,76941
63,546753
52,06604
45,620728
45,92285
37,060547
22,860718
21,047974
20,443726
11,380005
2,5177002
-12,789917
-19,23523
-19,638062
-20,947266
-26,28479
-32,125854
-34,94568
-43,203735
-36,154175
-38,571167
-39,074707
-39,779663
-43,40515
-38,671875
-22,457886
-10,574341
-5,9417725
2,3162842
21,047974
30,615234
35,247803
44,91577
57,302856
62,942505
65,66162
71,60339
63,74817
62,036133
58,007812
52,06604
54,483032
47,03064
43,00232
36,053467
33,132935
21,047974
9,667969
12,588501
6,1431885
-5,9417725
-13,192749
-22,860718
-25,479126
-36,35559
-43,00232
-36,758423
-30,111694
-46,124268
-45,721436
-46,42639
-40,182495
-41,189575
-38,269043
-36,557007
-32,125854
-9,164429
1,9134521
5,0354004
11,782837
13,092041
23,76709
37,46338
37,564087
40,98816
41,693115
48,843384
50,756836
50,857544
48,54126
50,253296
55,892944
52,670288
48,742676
46,02356
37,664795
32,528687
23,867798
17,019653
13,394165
4,5318604
-0,60424805
-18,832397
-20,947266
-35,95276
-34,643555
-38,571167
-47,735596
-45,01648
-43,00232
-44,51294
-35,44922
-35,046387
-38,168335
-37,765503
-24,874878
-10,977173
2,5177002
14,804077
18,630981
16,818237
33,43506
42,39807
47,131348
60,72693
65,15808
64,85596
64,956665
58,71277
51,461792
42,39807
35,046387
31,219482
24,673462
25,78125
14,602661
6,7474365
0,70495605
1,7120361
-0,20141602
-5,7403564
-21,047974
-25,881958
-32,93152
-37,36267
-47,232056
-45,822144
-46,224976
-47,836304
-48,03772
-46,92993
-45,822144
-43,606567
-44,0094
-37,96692
-35,751343
-10,171509
-2,4169922
1,0070801
11,279297
19,436646
31,118774
33,636475
50,354004
57,70569
59,820557
66,56799
61,73401
59,417725
62,13684
50,756836
49,246216
44,51294
37,060547
29,406738
22,457886
15,005493
2,9205322
3,8269043
-0,30212402
-13,394165
-18,328857
-27,493286
-38,87329
-41,39099
-44,110107
-48,843384
-53,07312
-52,770996
-51,965332
-54,18091
-48,843384
-42,39807
-44,110107
-37,161255
-34,94568
-21,047974
-12,387085
5,1361084
19,839478
27,191162
35,046387
48,239136
48,843384
51,5625
52,56958
54,885864
60,827637
53,778076
60,22339
52,670288
43,00232
38,87329
38,36975
24,371338
15,005493
3,2226562
6,2438965
-4,8339844
-10,070801
-15,408325
-24,975586
-33,535767
-37,36267
-42,800903
-46,02356
-54,0802
-54,58374
-55,08728
-54,0802
-56,09436
-50,55542
-52,468872
-46,02356
-46,224976
-39,276123
-30,111694
-13,192749
-6,3446045
10,372925
21,047974
33,33435
37,765503
42,599487
49,54834
57,000732
62,539673
58,914185
47,03064
48,94409
44,815063
45,822144
45,620728
33,33435
34,542847
25,982666
5,5389404
7,5531006
3,3233643
-1,3092041
-5,9417725
-17,926025
-29,80957
-38,571167
-43,90869
-49,850464
-52,267456
-46,92993
-49,850464
-52,972412
-60,324097
-51,05896
-47,131348
-41,793823
-35,247803
-26,889038
-14,703369
0,50354004
2,1148682
13,897705
21,75293
28,29895
41,89453
46,42639
50,354004
50,756836
60,324097
55,08728
56,09436
49,54834
41,793823
45,52002
40,786743
33,132935
25,378418
12,588501
8,862305
6,6467285
6,5460205
-0,40283203
-13,092041
-17,22107
-30,81665
-17,22107
-33,737183
-37,765503
-42,49878
-43,707275
-39,175415
-43,00232
-43,103027
-46,02356
-44,110107
-45,01648
-42,297363
-37,36267
-24,874878
-14,199829
-4,6325684
8,761597
18,026733
35,44922
43,606567
48,54126
51,05896
55,389404
61,532593
57,70569
56,09436
49,95117
51,864624
52,166748
41,189575
45,620728
21,853638
29,30603
15,710449
11,682129
8,258057
-3,0212402
-9,869385
-20,040894
-36,4563
-44,0094
-44,0094
-50,253296
-56,900024
-57,302856
-62,74109
-60,021973
-67,17224
-64,453125
-67,27295
-66,76941
-58,410645
-35,751343
-16,415405
-0,20141602
12,588501
26,486206
38,36975
53,979492
51,5625
59,921265
66,970825
66,16516
66,36658
67,474365
70,495605
56,900024
50,958252
41,89453
32,93152
32,42798
27,090454
20,645142
10,171509
5,1361084
-2,2155762
-5,8410645
-17,019653
-30,31311
-36,557007
-42,599487
-49,749756
-52,670288
-57,20215
-55,892944
-60,525513
-62,13684
-43,707275
-51,05896
-62,13684
-55,69153
-53,475952
-38,168335
-21,652222
-17,422485
-8,358765
0,60424805
18,630981
24,673462
37,765503
36,557007
38,974
38,671875
42,49878
45,620728
42,39807
39,074707
42,700195
37,161255
28,198242
21,350098
15,307617
7,4523926
-1,1077881
-1,4099121
-4,7332764
-10,473633
-15,811157
-32,528687
-30,615234
-41,189575
-46,42639
-59,317017
-57,504272
-54,382324
-57,70569
-59,21631
-62,338257
-57,10144
-52,670288
-56,09436
-52,770996
-39,578247
-20,040894
7,5531006
-1,6113281
5,2368164
17,019653
24,975586
34,94568
39,175415
46,124268
50,958252
55,288696
59,71985
56,09436
57,403564
47,836304
43,707275
34,744263
25,177002
20,544434
12,890625
9,869385
5,0354004
2,8198242
-2,9205322
-13,998413
-18,630981
-36,95984
-49,649048
-51,864624
-53,274536
-64,55383
-63,043213
-64,151
-63,043213
-54,68445
-54,382324
-49,850464
-51,864624
-55,792236
-43,00232
-26,586914
-9,970093
-0,30212402
7,7545166
22,76001
31,018066
44,0094
53,778076
53,375244
53,979492
53,475952
55,288696
48,843384
51,5625
39,779663
49,54834
39,678955
28,198242
25,680542
13,494873
10,272217
18,530273
-0,20141602
-4,1290283
-7,9559326
-20,040894
-27,896118
-38,47046
-36,35559
-53,17383
-59,21631
-61,12976
-54,382324
-48,03772
-51,864624
-52,56958
-57,70569
-54,18091
-44,91577
-35,751343
-14,804077
-7,5531006
4,3304443
10,574341
21,450806
36,85913
32,025146
45,217896
45,721436
55,490112
39,37683
57,907104
57,70569
55,69153
45,217896
44,815063
35,549927
27,29187
26,989746
18,026733
12,185669
7,0495605
8,660889
-1,5106201
-4,3304443
-18,73169
-25,378418
-38,168335
-49,54834
-55,18799
-52,770996
-60,72693
-54,281616
-48,94409
-49,246216
-47,131348
-44,311523
-45,822144
-39,578247
-29,406738
-12,890625
3,7261963
10,876465
15,911865
25,680542
32,629395
46,224976
54,0802
62,539673
60,928345
78,35083
71,30127
66,26587
59,921265
53,274536
54,483032
47,131348
39,37683
28,701782
16,516113
13,998413
6,2438965
2,8198242
-4,3304443
-18,630981
-20,947266
-33,535767
-39,37683
-48,239136
-52,267456
-62,13684
-59,317017
-52,972412
-55,892944
-57,504272
-57,000732
-55,59082
-39,578247
-50,05188
-41,39099
-23,464966
-12,689209
-2,7191162
11,380005
21,954346
29,708862
41,39099
47,03064
53,274536
48,239136
49,346924
53,17383
48,138428
38,36975
39,074707
44,613647
27,493286
27,896118
18,22815
11,782837
5,0354004
4,5318604
5,3375244
-3,6254883
-11,279297
-28,29895
-38,067627
-41,592407
-43,00232
-56,295776
-63,546753
-58,007812
-57,60498
-54,885864
-54,0802
-47,131348
-44,815063
-51,864624
-53,07312
-43,90869
-26,486206
-16,71753
-7,7545166
2,9205322
16,616821
24,572754
29,30603
41,89453
40,283203
45,52002
43,90869
49,0448
50,354004
52,56958
43,90869
36,758423
28,80249
26,586914
21,853638
12,487793
2,9205322
0,20141602
1,6113281
-6,3446045
-19,839478
-26,28479
-36,4563
-44,41223
-55,59082
-52,871704
-57,20215
-57,302856
-61,935425
-56,69861
-50,55542
-52,468872
-54,68445
-49,346924
-48,641968
-35,751343
-15,106201
-9,970093
6,5460205
13,595581
21,450806
30,010986
39,074707
46,42639
51,663208
51,260376
58,410645
49,649048
53,67737
45,117188
42,095947
36,95984
37,86621
34,542847
24,371338
13,192749
6,7474365
0,9063721
-1,7120361
-18,026733
-28,29895
-34,744263
-42,49878
-49,346924
-50,958252
-59,317017
-53,07312
-57,10144
-61,12976
-62,338257
-68,68286
-59,820557
-58,813477
-56,69861
-55,18799
-46,627808
-32,730103
-22,76001
-11,782837
6,7474365
15,408325
24,673462
34,240723
41,39099
50,656128
57,20215
63,345337
63,446045
53,878784
51,260376
46,02356
41,39099
43,707275
40,686035
35,147095
25,076294
21,148682
15,005493
5,1361084
0,80566406
-5,8410645
-21,954346
-29,80957
-36,154175
-45,117188
-48,54126
-57,907104
-51,5625
-45,01648
-44,714355
-45,822144
-44,311523
-35,046387
-35,247803
-34,34143
-23,666382
-20,544434
-11,581421
2,6184082
5,3375244
16,113281
25,881958
25,982666
43,40515
52,871704
49,246216
48,44055
46,02356
42,90161
37,564087
37,564087
33,132935
26,78833
26,184082
13,192749
6,2438965
-1,7120361
-0,30212402
-3,5247803
-5,7403564
-21,551514
-31,521606
-39,779663
-47,735596
-58,309937
-47,93701
-54,0802
-61,73401
-57,907104
-59,1156
-55,08728
-48,641968
-46,829224
-54,0802
-57,806396
-43,00232
-21,75293
-14,401245
-4,1290283
2,5177002
13,192749
26,889038
34,744263
39,578247
41,89453
44,0094
48,843384
44,91577
50,656128
43,00232
36,657715
29,003906
29,708862
18,429565
13,192749
8,157349
-3,8269043
-4,4311523
-1,2084961
-4,5318604
-24,673462
-33,032227
-42,800903
-50,857544
-56,900024
-58,309937
-65,76233
-50,253296
-63,24463
-52,166748
-51,260376
-60,12268
-54,382324
-58,511353
-45,721436
-33,737183
-24,572754
-13,696289
-2,5177002
5,1361084
19,73877
26,385498
38,269043
46,42639
46,224976
49,649048
57,20215
52,770996
47,232056
45,620728
46,42639
39,37683
35,549927
26,083374
19,033813
27,29187
8,862305
8,358765
7,6538086
-0,10070801
-11,682129
-32,226562
-34,140015
-41,89453
-55,08728
-61,935425
-62,13684
-60,928345
-55,08728
-60,12268
-60,525513
-59,1156
-58,309937
-45,318604
-41,39099
-33,032227
-19,73877
-7,0495605
0,20141602
11,581421
23,867798
34,744263
37,161255
44,41223
52,166748
52,871704
52,368164
54,885864
56,19507
52,267456
41,693115
40,081787
32,125854
39,175415
31,018066
27,694702
14,300537
5,1361084
2,1148682
-2,3162842
-19,335938
-24,472046
-32,226562
-37,765503
-47,332764
-54,281616
-52,972412
-58,71277
-50,656128
-48,641968
-46,224976
-48,138428
-54,68445
-45,41931
-42,39807
-28,198242
-16,818237
-8,963013
1,9134521
11,984253
19,638062
25,579834
40,48462
43,606567
45,41931
42,297363
52,267456
49,850464
53,274536
50,05188
41,89453
35,34851
35,85205
36,154175
23,364258
19,134521
11,178589
5,6396484
3,5247803
-4,3304443
-18,73169
-23,565674
-38,269043
-34,039307
-42,90161
-31,622314
-43,00232
-52,871704
-57,10144
-51,864624
-54,68445
-46,728516
-49,44763
-46,627808
-35,046387
-27,896118
-17,623901
-5,4382324
4,4311523
15,307617
27,493286
38,47046
44,0094
50,05188
53,878784
54,885864
57,504272
58,309937
54,281616
48,742676
37,564087
34,140015
33,83789
21,652222
13,595581
9,869385
8,459473
2,5177002
9,970093
-1,9134521
-11,984253
-22,357178
-36,35559
-42,196655
-45,52002
-51,965332
-60,22339
-55,69153
-56,900024
-57,403564
-56,497192
-49,44763
-47,836304
-50,756836
-44,210815
-32,125854
-18,22815
-12,588501
-1,1077881
12,890625
19,940186
32,025146
42,800903
50,454712
54,483032
59,014893
58,61206
53,67737
49,649048
46,92993
51,260376
29,80957
34,744263
29,910278
19,436646
14,501953
5,2368164
5,9417725
0,40283203
-9,869385
-20,74585
-23,26355
-33,132935
-37,765503
-43,50586
-52,06604
-49,246216
-50,253296
-54,986572
-51,663208
-54,281616
-51,5625
-52,368164
-44,51294
-44,110107
-35,34851
-24,472046
-13,092041
-1,0070801
10,473633
24,169922
33,132935
34,44214
40,786743
51,260376
53,375244
55,389404
50,857544
47,836304
45,52002
40,585327
32,025146
32,528687
29,205322
15,811157
12,487793
3,8269043
6,5460205
-7,3516846
-7,5531006
-21,350098
-21,24939
-42,095947
-48,641968
-48,641968
-50,253296
-56,396484
-59,1156
-56,5979
-59,417725
-58,914185
-52,670288
-59,1156
-47,43347
-42,90161
-35,34851
-25,177002
-15,509033
0,10070801
4,4311523
21,047974
29,507446
34,039307
40,182495
56,295776
52,166748
45,117188
47,53418
41,592407
36,053467
37,96692
30,514526
23,565674
13,092041
13,998413
7,5531006
4,6325684
4,9346924
1,9134521
-9,365845
-17,019653
-26,28479
-34,744263
-46,224976
-53,17383
-53,475952
-64,25171
-61,73401
-60,525513
-59,014893
-50,656128
-54,58374
-59,1156
-51,763916
-32,629395
-30,010986
-13,394165
-5,3375244
8,963013
15,206909
36,35559
30,715942
32,730103
44,41223
58,511353
56,09436
53,67737
54,58374
51,864624
49,649048
43,00232
37,86621
30,111694
31,521606
27,694702
19,033813
11,178589
8,560181
0,9063721
-3,2226562
-15,609741
-23,968506
-35,046387
-41,793823
-51,864624
-51,864624
-57,60498
-57,000732
-57,907104
-61,532593
-58,410645
-52,267456
-49,44763
-51,361084
-39,175415
-34,44214
-22,25647
-15,106201
-1,6113281
5,7403564
14,099121
22,357178
31,521606
35,650635
45,318604
48,44055
61,935425
61,73401
63,14392
57,504272
50,354004
47,332764
35,046387
36,053467
29,910278
28,500366
19,839478
15,106201
8,157349
5,3375244
-10,876465
-17,523193
-23,76709
-44,41223
-51,5625
-55,892944
-59,518433
-48,339844
-51,05896
-49,649048
-53,878784
-40,182495
-55,69153
-46,02356
-40,283203
-31,622314
-21,148682
-8,761597
-0,60424805
9,365845
28,601074
33,535767
40,585327
46,829224
50,756836
53,778076
43,103027
49,749756
43,90869
41,39099
42,599487
31,622314
26,687622
20,645142
23,062134
13,494873
2,3162842
2,7191162
-4,7332764
-13,494873
-21,24939
-33,9386
-35,95276
-42,49878
-51,05896
-55,792236
-55,18799
-59,518433
-54,68445
-53,475952
-51,663208
-48,239136
-47,03064
-49,850464
-45,52002
-28,903198
-13,394165
-4,1290283
0,10070801
12,084961
22,457886
40,38391
39,98108
47,43347
60,021973
57,10144
47,634888
47,93701
41,99524
36,557007
37,46338
32,226562
28,198242
23,666382
11,178589
4,5318604
3,3233643
-0,30212402
-6,4453125
-9,164429
-23,062134
-29,708862
-42,800903
-45,01648
-51,260376
-47,93701
-48,742676
-54,986572
-59,518433
-54,68445
-62,036133
-59,1156
-54,986572
-53,274536
-42,49878
-34,140015
-19,23523
-12,286377
3,1219482
6,0424805
12,084961
26,78833
43,203735
37,765503
47,131348
50,05188
52,267456
46,224976
46,829224
45,117188
38,168335
37,765503
25,78125
19,537354
18,127441
8,963013
8,761597
1,6113281
-7,7545166
-8,963013
-14,099121
-27,996826
-36,35559
-43,304443
-48,339844
-54,68445
-59,1156
-57,302856
-59,921265
-50,656128
-59,518433
-55,288696
-50,454712
-52,871704
-42,800903
-38,974
-27,29187
-3,3233643
5,0354004
16,71753
25,881958
40,182495
51,763916
46,42639
49,749756
60,324097
56,69861
49,44763
52,972412
55,892944
46,5271
42,39807
30,010986
21,954346
11,984253
9,768677
-1,0070801
2,9205322
-0,80566406
-1,3092041
-21,047974
-24,572754
-40,182495
-44,110107
-61,029053
-62,942505
-53,979492
-53,878784
-56,09436
-51,864624
-44,210815
-43,203735
-33,233643
-35,046387
-36,35559
-22,25647
-9,970093
2,1148682
5,9417725
17,019653
25,881958
38,671875
35,44922
52,267456
60,324097
58,511353
59,820557
57,403564
57,302856
54,483032
52,06604
46,5271
37,46338
31,622314
24,371338
13,595581
3,5247803
5,2368164
0,70495605
-3,4240723
-17,623901
-30,31311
-34,744263
-44,0094
-52,972412
-60,72693
-60,424805
-60,12268
-54,68445
-57,504272
-51,260376
-56,497192
-50,152588
-55,69153
-41,088867
-32,226562
-14,199829
-5,9417725
6,2438965
20,040894
34,240723
39,779663
48,843384
50,454712
55,490112
55,490112
56,900024
58,813477
57,302856
52,670288
49,145508
38,772583
34,039307
28,701782
19,537354
12,991333
18,73169
7,6538086
0
-9,164429
-21,75293
-30,111694
-47,53418
-47,332764
-54,0802
-61,834717
-52,670288
-47,836304
-49,749756
-53,878784
-53,07312
-54,58374
-51,763916
-54,483032
-39,678955
-27,29187
-19,638062
-5,2368164
2,8198242
15,206909
25,78125
32,32727
28,701782
46,124268
51,965332
53,979492
54,483032
54,0802
52,267456
46,42639
37,564087
34,744263
29,104614
23,867798
16,314697
6,6467285
-7,4523926
0,10070801
-6,8481445
-7,3516846
-16,012573
-24,169922
-31,723022
-41,99524
-36,95984
-47,332764
-54,68445
-49,346924
-51,05896
-52,670288
-52,267456
-52,468872
-51,361084
-47,332764
-50,857544
-32,528687
-19,73877
-9,063721
3,6254883
13,897705
15,206909
31,924438
35,549927
48,03772
52,56958
50,05188
48,03772
51,663208
45,822144
43,90869
43,00232
32,93152
26,184082
32,32727
21,652222
12,387085
3,9276123
3,9276123
-1,9134521
-9,164429
-24,77417
-34,94568
-39,276123
-52,06604
-52,56958
-57,70569
-53,67737
-57,70569
-57,806396
-52,468872
-54,68445
-47,332764
-50,454712
-48,339844
-44,210815
-27,493286
-15,710449
-2,6184082
9,768677
10,372925
28,500366
36,95984
45,01648
50,958252
55,490112
55,993652
57,504272
61,23047
53,57666
48,339844
37,96692
33,535767
25,680542
27,29187
16,516113
12,991333
10,473633
10,977173
7,2509766
-5,9417725
-19,537354
-28,601074
-39,578247
-44,210815
-45,620728
-47,131348
-54,483032
-56,19507
-61,73401
-49,44763
-53,979492
-50,656128
-43,40515
-45,41931
-40,38391
-21,450806
-13,998413
-0,70495605
6,1431885
7,9559326
25,881958
21,954346
29,708862
37,664795
47,232056
46,325684
48,843384
45,318604
49,95117
45,721436
37,36267
49,246216
30,615234
21,954346
9,265137
3,7261963
-5,7403564
10,977173
-5,3375244
-7,7545166
-26,486206
-31,521606
-38,47046
-54,0802
-55,892944
-57,70569
-60,22339
-63,546753
-55,69153
-61,73401
-51,965332
-49,0448
-49,246216
-48,239136
-44,210815
-26,385498
-15,911865
-7,6538086
4,2297363
14,401245
21,350098
27,191162
32,730103
45,822144
44,41223
46,124268
46,124268
56,09436
56,799316
57,504272
54,281616
48,03772
42,700195
34,542847
21,652222
15,408325
11,782837
15,911865
7,9559326
3,7261963
-15,609741
-21,24939
-31,924438
-47,03064
-50,253296
-55,08728
-50,55542
-59,317017
-54,0802
-48,339844
-44,41223
-48,641968
-41,290283
-40,98816
-43,00232
-31,32019
-20,645142
-9,164429
8,963013
16,314697
21,75293
27,694702
34,039307
29,104614
46,627808
48,44055
51,05896
49,749756
51,05896
51,260376
45,217896
37,86621
25,076294
27,090454
12,789917
7,5531006
7,9559326
-3,7261963
-2,9205322
-12,185669
-27,29187
-34,34143
-42,095947
-46,02356
-48,03772
-49,850464
-56,295776
-61,73401
-58,914185
-57,10144
-58,71277
-64,956665
-56,497192
-57,907104
-47,836304
-32,83081
-20,040894
-9,063721
4,5318604
13,394165
29,708862
31,82373
41,088867
40,585327
36,95984
53,778076
52,267456
49,95117
40,38391
41,4917
34,34143
32,42798
26,586914
19,839478
8,056641
3,7261963
-0,80566406
-2,5177002
-5,5389404
-9,567261
-20,74585
-35,147095
-38,067627
-53,07312
-60,324097
-57,504272
-58,71277
-56,799316
-57,302856
-56,295776
-57,504272
-53,07312
-50,152588
-55,490112
-49,0448
-32,125854
-10,372925
-1,8127441
8,157349
13,394165
19,436646
30,514526
43,807983
49,346924
53,07312
53,67737
53,878784
55,08728
56,5979
45,117188
37,86621
37,664795
38,168335
29,30603
20,040894
7,3516846
2,1148682
1,3092041
-3,9276123
-12,588501
-22,76001
-33,83789
-42,90161
-46,124268
-46,124268
-46,124268
-46,124268
-46,124268
-46,124268
-46,124268
-46,124268
-46,124268
-46,124268
-46,124268
-46,124268
-46,124268
-46,124268
-46,124268
13,394165
17,72461
33,83789
40,786743
48,03772
47,03064
50,656128
51,461792
50,454712
44,110107
40,98816
46,02356
42,49878
33,9386
23,565674
22,558594
10,272217
4,9346924
-3,7261963
3,2226562
3,4240723
-9,365845
-19,335938
-31,723022
-39,175415
-50,857544
-40,88745
-46,325684
-49,649048
-53,67737
-60,021973
-58,511353
-61,532593
-53,778076
-57,403564
-50,857544
-44,714355
-31,723022
-16,818237
-8,761597
-9,466553
15,811157
20,443726
30,31311
37,060547
43,50586
47,93701
52,670288
59,21631
54,0802
54,281616
49,850464
40,88745
30,111694
29,910278
25,479126
25,680542
14,099121
10,372925
16,818237
6,2438965
-4,7332764
-20,645142
-32,93152
-36,4563
-43,203735
-46,224976
-51,361084
-54,281616
-52,670288
-51,5625
-62,338257
-52,267456
-53,07312
-52,871704
-45,721436
-38,571167
-26,083374
-13,293457
-1,9134521
9,365845
13,796997
23,464966
33,636475
38,269043
44,815063
52,56958
51,5625
74,62463
48,44055
50,958252
44,815063
44,311523
29,205322
34,44214
21,450806
19,73877
13,494873
-0,9063721
5,5389404
4,5318604
0,30212402
-18,630981
-39,37683
-52,368164
-64,453125
-57,806396
-65,3595
-64,35242
-58,511353
-57,70569
-61,935425
-60,72693
-49,850464
-49,246216
-43,40515
-33,33435
-23,364258
-11,883545
5,5389404
10,775757
18,026733
25,076294
31,924438
44,815063
51,260376
49,649048
53,67737
59,921265
60,928345
52,368164
45,318604
41,693115
29,708862
25,78125
21,75293
25,680542
18,832397
8,157349
12,185669
8,258057
-7,7545166
-13,796997
-28,500366
-37,36267
-44,91577
-51,361084
-52,267456
-60,324097
-59,518433
-57,907104
-59,317017
-61,431885
-60,324097
-60,72693
-53,17383
-45,822144
-34,744263
-19,537354
-10,876465
-0,9063721
12,387085
29,708862
33,535767
36,557007
52,267456
45,41931
46,627808
41,592407
45,822144
42,39807
45,620728
34,84497
30,715942
18,832397
19,638062
14,199829
10,977173
1,6113281
0,50354004
-2,3162842
-11,883545
-23,867798
-35,147095
-43,707275
-54,986572
-55,892944
-59,518433
-65,05737
-61,431885
-68,68286
-66,56799
-62,74109
-61,12976
-60,12268
-56,900024
-45,41931
-25,680542
-14,602661
-5,2368164
6,9488525
11,883545
25,78125
32,528687
33,33435
49,44763
50,656128
58,813477
51,663208
50,958252
46,42639
36,053467
30,212402
26,385498
25,78125
8,963013
11,782837
11,077881
-0,10070801
-1,5106201
-3,7261963
-6,4453125
-17,72461
-36,95984
-42,095947
-47,332764
-54,281616
-54,58374
-60,928345
-60,827637
-58,914185
-59,820557
-59,317017
-52,972412
-54,68445
-53,07312
-49,649048
-36,254883
-13,998413
-10,372925
-2,9205322
6,1431885
21,350098
30,917358
38,36975
45,01648
46,829224
46,92993
50,05188
49,346924
43,606567
34,44214
32,32727
29,80957
25,479126
19,436646
17,019653
7,6538086
3,4240723
7,4523926
6,5460205
1,4099121
-14,099121
-27,79541
-39,578247
-47,332764
-46,829224
-54,68445
-51,260376
-57,907104
-58,914185
-60,62622
-59,317017
-56,396484
-51,965332
-48,742676
-33,737183
-21,24939
-13,796997
2,2155762
4,3304443
11,380005
28,198242
35,549927
49,649048
48,44055
59,21631
55,993652
56,69861
55,18799
52,871704
44,91577
45,01648
38,47046
30,715942
23,062134
9,768677
6,8481445
5,0354004
-2,3162842
-5,5389404
-12,890625
-19,940186
-33,233643
-44,815063
-50,55542
-55,288696
-62,13684
-58,914185
-64,75525
-61,6333
-64,35242
-62,036133
-58,914185
-59,1156
-57,10144
-46,42639
-27,694702
-19,335938
-10,574341
-10,372925
-3,5247803
7,5531006
14,804077
26,28479
39,175415
44,91577
49,649048
51,05896
49,850464
49,44763
45,620728
58,309937
64,05029
60,22339
47,03064
44,311523
38,87329
24,27063
19,638062
10,775757
7,5531006
-2,7191162
-15,206909
-32,730103
-46,92993
-65,76233
-75,32959
-76,638794
-69,58923
-56,295776
-56,09436
-59,1156
-56,900024
-57,70569
-47,131348
-37,161255
-29,205322
-21,551514
-15,307617
-2,9205322
-5,5389404
12,890625
24,371338
38,974
56,497192
72,10693
71,7041
43,90869
26,385498
11,984253
5,5389404
7,6538086
16,415405
24,673462
22,76001
1,1077881
-24,472046
-38,269043
-36,85913
-37,96692
-32,42798
-47,03064
-61,532593
-75,027466
-80,36499
-79,45862
-67,37366
-35,751343
-0,70495605
25,881958
63,14392
78,25012
61,6333
13,696289
-6,4453125
-30,111694
-19,638062
-3,0212402
5,9417725
8,560181
9,768677
11,984253
12,286377
19,839478
24,77417
26,889038
26,586914
30,111694
34,643555
27,090454
26,486206
21,24939
11,782837
17,120361
10,070801
8,963013
1,7120361
-4,5318604
5,1361084
-4,6325684
-12,387085
-15,206909
-21,148682
-31,82373
-43,50586
-45,721436
-50,253296
-49,44763
-61,532593
-62,539673
-47,43347
-49,54834
-44,41223
-43,304443
-38,772583
-28,903198
-23,867798
-6,0424805
2,3162842
11,480713
23,062134
28,701782
38,47046
36,154175
58,309937
54,68445
56,19507
53,274536
53,274536
51,663208
44,51294
47,03064
36,154175
35,147095
26,78833
26,989746
13,796997
4,5318604
0,50354004
-5,7403564
-21,24939
-32,93152
-35,751343
-42,800903
-57,302856
-64,956665
-64,956665
-67,57507
-67,07153
-62,036133
-63,949585
-60,62622
-60,928345
-57,504272
-57,70569
-48,138428
-33,132935
-21,853638
-24,77417
-9,164429
6,6467285
21,450806
34,84497
39,074707
45,822144
51,260376
51,05896
57,20215
45,41931
38,772583
32,025146
29,910278
31,521606
22,558594
16,113281
-7,5531006
2,6184082
-0,60424805
-9,164429
-10,272217
-22,961426
-38,571167
-38,571167
-52,56958
-55,288696
-56,900024
-55,69153
-63,546753
-65,963745
-61,834717
-56,09436
-59,820557
-61,532593
-56,09436
-45,117188
-36,35559
-12,387085
-13,595581
-4,6325684
7,5531006
22,558594
27,996826
38,47046
40,48462
55,792236
66,26587
71,90552
68,481445
62,539673
59,61914
59,1156
52,267456
38,87329
25,27771
18,832397
6,9488525
-5,9417725
-0,60424805
2,2155762
-8,157349
-5,1361084
-20,645142
-26,889038
-24,673462
-20,443726
-21,24939
-15,408325
-20,343018
-27,996826
-32,226562
-35,95276
-44,311523
-44,41223
-33,737183
-29,406738
-23,26355
-7,7545166
-5,3375244
11,380005
18,127441
31,622314
40,585327
50,55542
48,339844
60,827637
61,6333
58,914185
64,151
57,504272
56,396484
53,979492
52,770996
43,203735
37,96692
35,549927
33,43506
22,055054
16,71753
8,963013
-2,7191162
-6,9488525
-15,911865
-22,457886
-24,673462
-37,86621
-38,571167
-43,203735
-44,815063
-36,657715
-47,43347
-49,95117
-48,94409
-35,751343
-42,800903
-44,613647
-37,86621
-22,860718
-13,394165
2,0141602
7,7545166
13,595581
33,9386
43,807983
60,525513
62,841797
63,546753
67,8772
65,56091
69,488525
63,043213
61,73401
58,71277
56,799316
47,03064
40,585327
32,629395
17,623901
13,394165
6,6467285
-17,321777
-37,46338
-46,224976
-55,08728
-56,19507
-62,338257
-62,23755
-61,935425
-73,41614
-72,40906
-69,58923
-74,42322
-68,984985
-64,05029
-65,76233
-63,949585
-57,70569
-41,793823
-37,765503
-19,638062
1,1077881
4,9346924
17,22107
23,062134
38,974
41,693115
50,55542
51,05896
49,246216
40,38391
39,37683
41,39099
36,154175
33,132935
42,800903
25,78125
12,588501
14,501953
8,157349
1,0070801
-5,6396484
-14,703369
-22,457886
-31,521606
-44,110107
-51,361084
-55,59082
-52,972412
-46,627808
-53,475952
-58,20923
-52,871704
-53,475952
-52,670288
-44,714355
-44,311523
-39,578247
-30,31311
-15,811157
-3,1219482
3,7261963
12,689209
35,046387
32,629395
42,599487
52,972412
61,935425
63,546753
60,525513
61,73401
52,972412
46,124268
47,43347
30,81665
31,622314
23,26355
17,72461
16,21399
7,1502686
7,1502686
-2,0141602
-6,7474365
-26,889038
-23,364258
-32,83081
-37,36267
-54,382324
-49,649048
-57,302856
-52,770996
-52,770996
-51,864624
-50,756836
-44,110107
-49,0448
-44,51294
-30,413818
-17,422485
-14,804077
4,2297363
19,537354
25,27771
36,85913
42,196655
48,742676
51,864624
55,490112
52,468872
54,68445
49,749756
45,822144
46,5271
39,578247
30,715942
23,162842
29,910278
15,005493
5,9417725
4,5318604
1,9134521
-0,30212402
-12,890625
-27,493286
-39,37683
-51,763916
-58,007812
-49,44763
-54,483032
-53,375244
-55,59082
-55,892944
-52,770996
-48,03772
-38,067627
-48,239136
-50,454712
-41,290283
-25,479126
-3,1219482
2,1148682
10,574341
23,666382
26,687622
33,9386
28,097534
44,815063
48,641968
50,454712
56,396484
46,124268
48,641968
51,05896
48,44055
48,641968
43,00232
36,557007
23,968506
12,890625
13,192749
6,1431885
1,9134521
-4,9346924
-26,78833
-31,32019
-37,161255
-45,92285
-48,742676
-50,05188
-55,08728
-56,900024
-60,62622
-50,756836
-51,260376
-44,110107
-50,454712
-51,461792
-40,081787
-22,055054
-8,157349
-0,70495605
7,7545166
17,22107
31,32019
33,9386
40,38391
47,43347
48,03772
47,93701
60,324097
53,17383
52,670288
41,189575
38,671875
34,744263
44,210815
27,191162
11,380005
2,6184082
5,2368164
-0,9063721
-12,387085
-26,687622
-28,29895
-32,025146
-39,98108
-51,663208
-56,69861
-56,900024
-59,21631
-58,410645
-64,75525
-60,62622
-60,928345
-52,56958
-56,19507
-53,475952
-44,311523
-25,78125
-12,890625
-8,056641
4,1290283
14,703369
29,708862
29,708862
31,924438
29,708862
30,715942
29,406738
31,924438
29,507446
30,111694
27,593994
21,652222
21,853638
24,371338
27,392578
28,80249
22,457886
13,394165
11,782837
-8,459473
-8,560181
-25,680542
-36,657715
-34,34143
-49,850464
-51,159668
-58,10852
-56,799316
-62,539673
-56,5979
-59,317017
-57,504272
-56,09436
-55,490112
-52,972412
-44,110107
-29,910278
-17,926025
-9,063721
0
8,157349
21,652222
31,32019
38,87329
46,728516
48,94409
49,649048
47,332764
44,210815
46,42639
43,00232
32,629395
33,233643
27,694702
14,099121
28,097534
12,487793
7,1502686
7,2509766
-1,2084961
-14,199829
-21,652222
-32,629395
-36,758423
-41,793823
-46,124268
-50,857544
-51,965332
-51,260376
-54,58374
-58,511353
-41,793823
-44,110107
-46,627808
-39,074707
-28,198242
-13,192749
0,70495605
13,293457
16,616821
27,493286
30,81665
39,779663
46,325684
46,829224
50,05188
60,324097
55,18799
56,900024
55,490112
50,857544
47,43347
38,571167
31,118774
30,111694
21,047974
15,005493
8,761597
3,7261963
-1,0070801
-8,056641
-17,019653
-29,003906
-35,34851
-49,0448
-48,138428
-41,39099
-49,246216
-51,05896
-55,69153
-51,05896
-51,461792
-54,281616
-50,656128
-45,52002
-39,98108
-23,062134
-15,106201
-5,7403564
2,5177002
17,623901
31,219482
33,233643
40,38391
46,627808
50,958252
48,44055
51,05896
44,0094
36,154175
33,33435
34,34143
28,701782
27,493286
19,537354
8,862305
-1,6113281
-2,5177002
-1,2084961
-8,660889
-17,019653
-17,019653
-33,43506
-44,110107
-49,0448
-57,10144
-55,792236
-50,656128
-51,05896
-56,396484
-53,979492
-58,71277
-52,368164
-55,08728
-51,864624
-39,88037
-28,097534
-18,832397
-7,9559326
0,50354004
13,092041
23,062134
34,34143
41,088867
44,91577
50,55542
58,511353
53,979492
56,497192
50,656128
45,822144
41,39099
31,118774
29,30603
17,22107
12,890625
8,560181
2,5177002
-1,9134521
-8,963013
-15,005493
-26,78833
-30,715942
-40,786743
-42,90161
-42,90161
-44,51294
-48,239136
-48,94409
-52,56958
-51,5625
-50,454712
-43,203735
-46,728516
-41,088867
-31,32019
-18,832397
-5,6396484
4,1290283
15,307617
34,84497
28,29895
34,34143
44,210815
51,159668
49,649048
56,09436
55,892944
48,339844
56,497192
44,0094
35,147095
25,680542
24,472046
21,24939
13,998413
6,5460205
-12,084961
3,2226562
-3,0212402
-9,466553
-22,860718
-30,010986
-40,585327
-48,641968
-58,007812
-55,59082
-57,000732
-62,438965
-62,64038
-61,431885
-54,281616
-58,511353
-57,20215
-49,246216
-37,86621
-22,25647
-8,862305
-0,40283203
14,501953
41,088867
30,413818
10,574341
6,4453125
7,4523926
15,206909
29,608154
34,34143
38,067627
41,189575
38,067627
34,84497
32,83081
32,83081
30,31311
26,586914
22,357178
20,846558
19,537354
12,588501
7,3516846
-5,5389404
-1,5106201
-11,279297
-21,148682
-26,687622
-28,399658
-27,392578
-29,30603
-35,247803
-43,304443
-44,613647
-46,627808
-47,332764
-46,124268
-35,34851
-19,73877
-8,056641
5,6396484
10,977173
16,314697
34,744263
31,420898
34,94568
40,686035
45,620728
46,42639
45,117188
47,53418
36,657715
37,36267
31,924438
28,399658
18,328857
17,120361
5,3375244
-1,0070801
-0,60424805
-7,7545166
-9,970093
-18,530273
-26,889038
-37,96692
-52,972412
-66,467285
-63,043213
-64,956665
-68,17932
-69,992065
-67,977905
-56,295776
-57,20215
-52,468872
-48,843384
-47,03064
-43,90869
-30,514526
-15,005493
-9,567261
2,3162842
15,911865
27,191162
34,94568
45,52002
53,778076
56,900024
53,57666
54,18091
51,260376
44,110107
35,247803
30,111694
23,666382
21,24939
15,206909
9,768677
6,4453125
0,50354004
-5,8410645
-9,063721
-25,27771
-32,528687
-32,42798
-38,47046
-47,232056
-50,253296
-47,232056
-47,43347
-47,836304
-41,39099
-39,98108
-46,728516
-43,00232
-41,189575
-33,636475
-32,528687
-17,825317
-1,4099121
7,6538086
15,710449
29,104614
36,053467
48,339844
48,843384
53,57666
55,18799
68,17932
55,490112
51,763916
49,850464
39,779663
37,161255
28,29895
25,881958
20,846558
5,2368164
-0,9063721
1,7120361
-5,1361084
-5,5389404
-19,134521
-32,226562
-32,83081
-43,50586
-51,05896
-49,0448
-56,69861
-62,74109
-61,532593
-60,525513
-58,410645
-59,820557
-54,483032
-50,152588
-44,815063
-33,132935
-18,429565
-0,70495605
19,436646
13,796997
26,083374
34,542847
46,124268
53,375244
51,361084
47,43347
58,61206
56,396484
60,324097
44,815063
43,50586
33,9386
28,500366
33,233643
17,523193
7,8552246
6,4453125
-0,70495605
-3,1219482
-8,258057
-15,609741
-26,28479
-34,039307
-34,84497
-40,38391
-40,786743
-44,110107
-44,815063
-50,354004
-50,656128
-47,03064
-35,751343
-47,93701
-45,41931
-42,39807
-23,867798
-18,933105
-7,8552246
0,30212402
14,199829
22,25647
29,910278
38,974
37,96692
52,468872
48,843384
53,274536
56,09436
47,43347
52,267456
42,700195
41,89453
37,86621
32,32727
31,219482
14,904785
10,574341
5,5389404
-4,1290283
2,6184082
-12,890625
-21,652222
-29,910278
-31,420898
-39,578247
-45,721436
-51,05896
-51,361084
-52,06604
-49,44763
-42,297363
-35,046387
-41,793823
-35,34851
-36,557007
-33,9386
-20,645142
-10,775757
-6,5460205
11,581421
25,27771
37,564087
54,986572
52,468872
54,885864
51,763916
58,309937
51,361084
45,92285
50,05188
44,51294
37,564087
36,4563
29,30603
23,162842
17,321777
15,307617
11,581421
6,2438965
0,60424805
-10,574341
-23,062134
-26,78833
-40,686035
-50,857544
-50,656128
-48,54126
-51,461792
-41,793823
-47,53418
-53,07312
-52,670288
-45,01648
-45,92285
-40,786743
-38,671875
-25,479126
-12,185669
0,20141602
10,977173
21,75293
32,42798
43,203735
47,93701
51,461792
48,138428
50,857544
50,656128
50,857544
51,763916
52,06604
43,807983
34,240723
34,44214
30,413818
22,357178
15,609741
5,9417725
8,761597
2,3162842
1,2084961
-18,328857
-30,413818
-43,40515
-56,295776
-44,613647
-52,468872
-44,41223
-58,20923
-64,25171
-56,396484
-50,152588
-51,361084
-44,311523
-39,074707
-28,198242
-15,509033
-9,164429
-1,1077881
8,761597
21,853638
27,090454
32,730103
40,786743
47,836304
49,44763
54,0802
46,325684
44,210815
52,368164
48,44055
42,095947
26,083374
23,968506
17,623901
15,509033
10,070801
10,272217
3,9276123
-0,60424805
-17,321777
-25,177002
-31,521606
-41,693115
-42,196655
-49,850464
-48,03772
-45,620728
-51,763916
-55,08728
-51,763916
-54,18091
-44,815063
-43,40515
-47,232056
-33,33435
-21,954346
-5,9417725
4,4311523
5,9417725
19,537354
30,212402
32,83081
51,05896
48,843384
62,74109
63,14392
60,22339
58,813477
47,634888
44,311523
39,678955
34,94568
19,73877
10,372925
14,401245
4,5318604
-0,60424805
-9,265137
-6,3446045
-13,394165
-30,615234
-43,103027
-48,138428
-53,475952
-54,0802
-57,504272
-55,892944
-61,935425
-54,483032
-57,60498
-53,878784
-53,274536
-52,267456
-51,361084
-44,311523
-23,26355
-14,703369
-0,10070801
4,9346924
15,206909
32,32727
34,84497
38,067627
45,117188
49,649048
47,634888
40,38391
43,00232
40,786743
43,00232
35,650635
16,616821
15,408325
18,429565
7,8552246
1,6113281
7,8552246
8,459473
-4,1290283
-24,371338
-26,889038
-35,147095
-42,39807
-55,59082
-51,5625
-58,914185
-64,55383
-58,914185
-57,60498
-52,972412
-50,55542
-49,44763
-44,0094
-37,564087
-26,486206
-19,335938
-14,401245
-5,9417725
1,9134521
15,206909
27,392578
35,147095
49,0448
54,0802
72,509766
59,1156
68,17932
60,72693
54,885864
49,346924
38,87329
36,254883
25,982666
13,796997
11,782837
2,2155762
-2,8198242
-3,0212402
-7,0495605
-8,459473
-23,26355
-24,975586
-40,38391
-50,253296
-50,454712
-45,822144
-55,389404
-52,468872
-47,131348
-48,44055
-46,92993
-41,89453
-41,99524
-36,95984
-32,528687
-11,178589
-6,0424805
5,2368164
11,581421
19,73877
23,464966
31,622314
38,36975
47,836304
45,318604
46,829224
42,196655
42,599487
44,110107
48,742676
36,154175
29,205322
18,73169
24,874878
7,9559326
3,8269043
0,20141602
-7,1502686
-13,092041
-15,005493
-27,090454
-43,304443
-46,92993
-56,497192
-61,532593
-60,324097
-58,71277
-60,22339
-59,518433
-67,67578
-55,993652
-50,656128
-44,210815
-43,40515
-34,44214
-30,111694
-18,530273
-1,3092041
2,2155762
17,623901
27,593994
32,93152
46,829224
55,792236
59,1156
54,483032
62,74109
61,935425
50,454712
35,751343
32,226562
29,910278
24,77417
26,28479
12,185669
9,970093
9,667969
2,1148682
-7,1502686
-19,73877
-31,32019
-34,744263
-46,124268
-55,389404
-57,302856
-59,71985
-53,67737
-60,62622
-60,525513
-56,19507
-61,12976
-58,309937
-54,0802
-51,461792
-40,585327
-25,378418
-11,782837
-4,8339844
2,8198242
15,911865
25,78125
31,924438
42,800903
53,274536
50,05188
53,274536
53,878784
49,145508
40,786743
36,35559
31,924438
21,652222
25,378418
20,141602
9,063721
3,7261963
15,106201
5,0354004
-4,6325684
-18,530273
-22,860718
-27,593994
-37,36267
-43,50586
-47,43347
-53,878784
-47,53418
-50,55542
-52,166748
-51,05896
-47,03064
-46,124268
-45,822144
-43,00232
-29,30603
-9,466553
-2,3162842
2,1148682
14,804077
23,464966
30,715942
31,32019
42,196655
48,03772
48,843384
54,58374
52,56958
44,714355
44,0094
42,800903
34,34143
22,558594
23,464966
16,818237
13,092041
10,675049
2,3162842
-6,9488525
-11,178589
-25,579834
-30,917358
-41,290283
-47,634888
-53,475952
-56,799316
-56,900024
-56,69861
-60,525513
-54,0802
-48,843384
-40,283203
-38,168335
-39,47754
-36,95984
-24,572754
-2,2155762
4,9346924
17,120361
23,162842
32,629395
44,41223
45,822144
52,56958
58,511353
60,525513
64,75525
59,014893
55,490112
58,914185
40,48462
41,592407
48,239136
37,765503
24,371338
15,206909
5,6396484
8,660889
4,6325684
1,0070801
-10,272217
-25,680542
-26,889038
-40,48462
-48,54126
-43,606567
-44,815063
-44,613647
-48,54126
-51,864624
-45,822144
-48,641968
-49,0448
-45,117188
-35,95276
-21,148682
-10,775757
-0,10070801
8,056641
17,321777
27,694702
41,4917
47,93701
54,785156
54,785156
52,56958
53,778076
58,20923
53,17383
47,836304
44,41223
37,86621
35,549927
25,78125
22,457886
9,667969
4,5318604
0,9063721
-0,40283203
-15,609741
-20,846558
-33,33435
-43,50586
-50,354004
-59,921265
-64,956665
-49,54834
-53,57666
-53,57666
-50,354004
-48,641968
-48,03772
-49,145508
-48,94409
-47,43347
-39,98108
-29,205322
-17,926025
-5,3375244
3,2226562
18,630981
30,111694
36,4563
50,857544
47,43347
49,145508
49,850464
43,304443
49,749756
34,94568
41,39099
36,053467
20,343018
20,645142
15,408325
10,977173
8,862305
-7,9559326
-10,775757
-17,422485
-21,24939
-28,80249
-36,053467
-34,94568
-43,807983
-58,410645
-61,935425
-65,3595
-60,021973
-53,979492
-48,843384
-44,613647
-53,274536
-51,864624
-45,217896
-32,528687
-12,387085
-2,9205322
13,796997
18,22815
31,723022
49,145508
44,815063
47,232056
53,274536
62,13684
57,70569
55,288696
52,972412
54,483032
51,965332
43,203735
39,175415
33,83789
30,31311
15,408325
7,3516846
7,2509766
7,1502686
-0,10070801
-9,365845
-26,989746
-27,79541
-35,147095
-39,578247
-48,138428
-57,806396
-55,792236
-55,792236
-60,021973
-50,55542
-53,475952
-48,742676
-50,454712
-43,00232
-28,399658
-11,883545
-4,8339844
3,8269043
14,804077
24,371338
32,629395
44,210815
47,03064
58,511353
58,10852
55,18799
53,375244
48,03772
41,592407
36,557007
23,968506
28,80249
21,551514
21,450806
13,696289
4,5318604
-5,5389404
-1,9134521
-5,3375244
-13,092041
-21,75293
-28,399658
-42,39807
-45,52002
-50,857544
-57,10144
-55,69153
-56,19507
-58,71277
-58,10852
-55,59082
-49,749756
-47,03064
-40,283203
-33,33435
-15,811157
-10,272217
0
18,328857
30,514526
41,89453
47,735596
51,5625
53,475952
58,914185
58,71277
61,834717
61,23047
60,12268
48,843384
45,217896
36,4563
29,30603
27,493286
13,394165
5,6396484
0,9063721
-1,7120361
3,9276123
-23,062134
-29,708862
-35,95276
-47,836304
-52,770996
-58,914185
-59,921265
-54,58374
-52,468872
-48,339844
-49,649048
-45,822144
-48,339844
-50,656128
-46,627808
-31,521606
-20,544434
-11,782837
0,50354004
10,372925
23,565674
37,36267
43,203735
50,05188
52,166748
53,475952
52,871704
46,02356
47,232056
34,34143
38,067627
32,226562
28,500366
25,982666
15,509033
13,394165
9,466553
-5,7403564
-14,300537
-18,530273
-33,43506
-39,88037
-42,39807
-51,5625
-62,13684
-52,670288
-51,965332
-62,64038
-56,09436
-54,68445
-43,40515
-52,267456
-55,288696
-53,375244
-47,634888
-35,046387
-23,464966
-14,401245
-2,9205322
0,50354004
24,371338
32,93152
42,599487
51,965332
52,368164
50,354004
44,51294
52,56958
47,634888
46,92993
42,39807
30,917358
35,247803
33,83789
20,645142
12,789917
2,1148682
3,6254883
-0,9063721
-15,609741
-24,27063
-27,29187
-30,81665
-47,43347
-55,69153
-59,921265
-58,511353
-59,1156
-54,18091
-53,475952
-49,246216
-52,670288
-49,44763
-42,90161
-36,95984
-24,472046
-20,040894
-7,1502686
3,6254883
6,4453125
15,609741
25,076294
34,240723
47,53418
47,232056
59,518433
51,663208
27,79541
11,782837
7,2509766
4,0283203
6,4453125
7,3516846
15,106201
16,616821
19,436646
20,24231
19,537354
11,984253
17,72461
5,1361084
-0,30212402
-9,970093
-17,22107
-25,78125
-31,924438
-35,247803
-35,34851
-34,34143
-28,29895
-28,601074
-28,399658
-24,874878
-28,097534
-25,78125
-16,516113
-9,970093
-6,2438965
-7,8552246
1,0070801
0,50354004
7,0495605
13,998413
26,28479
29,30603
36,758423
35,44922
25,579834
38,269043
31,118774
31,32019
27,996826
16,314697
18,832397
8,963013
1,1077881
-0,9063721
2,7191162
-3,1219482
-12,487793
-17,926025
-26,28479
-32,93152
-38,067627
-36,85913
-46,829224
-43,807983
-49,749756
-51,763916
-52,468872
-48,239136
-48,94409
-46,325684
-45,620728
-39,578247
-34,744263
-22,860718
-10,372925
-1,0070801
10,372925
24,673462
38,974
39,074707
45,117188
45,822144
42,297363
53,07312
48,843384
42,599487
37,664795
36,4563
31,018066
26,586914
18,530273
11,480713
2,8198242
-1,5106201
-1,1077881
-4,2297363
-9,667969
-21,24939
-26,78833
-35,85205
-44,815063
-45,822144
-52,871704
-58,511353
-58,20923
-54,0802
-61,029053
-52,368164
-46,728516
-49,54834
-49,850464
-46,325684
-29,205322
-21,551514
-8,258057
-0,70495605
6,5460205
15,811157
25,479126
29,003906
38,974
45,318604
44,41223
49,44763
41,4917
45,117188
41,99524
38,87329
25,076294
26,28479
20,846558
15,710449
8,963013
-1,3092041
0,30212402
-7,0495605
-12,789917
-29,608154
-34,140015
-40,786743
-50,152588
-63,14392
-58,309937
-58,914185
-51,663208
-48,94409
-47,634888
-51,663208
-46,728516
-48,641968
-49,0448
-39,678955
-23,26355
-24,77417
-6,2438965
9,365845
16,71753
27,593994
36,35559
39,779663
44,210815
47,836304
50,253296
46,02356
43,606567
44,41223
47,93701
43,50586
35,549927
33,9386
20,645142
8,862305
0,9063721
-6,5460205
-5,0354004
2,1148682
-15,408325
-25,076294
-33,737183
-49,246216
-47,634888
-44,815063
-48,641968
-56,396484
-57,60498
-57,302856
-54,281616
-57,70569
-57,504272
-56,497192
-55,490112
-41,39099
-31,521606
-8,862305
1,1077881
13,494873
32,42798
35,34851
39,276123
48,339844
57,302856
63,043213
68,58215
72,30835
73,31543
58,309937
49,246216
36,35559
33,132935
30,212402
28,701782
24,572754
19,839478
12,890625
9,164429
-4,9346924
-8,963013
-18,630981
-31,018066
-31,32019
-46,627808
-50,756836
-46,02356
-53,07312
-51,260376
-53,375244
-50,454712
-46,5271
-42,095947
-39,678955
-33,83789
-23,968506
-21,853638
-27,090454
-27,694702
-19,940186
-7,5531006
12,588501
25,881958
34,240723
40,786743
54,281616
57,10144
55,792236
58,511353
55,490112
50,253296
45,822144
49,649048
41,290283
39,47754
34,744263
31,420898
27,392578
29,507446
22,860718
14,300537
-3,1219482
-10,977173
-15,609741
-38,36975
-43,90869
-53,67737
-68,481445
-62,13684
-60,827637
-56,497192
-53,07312
-51,864624
-50,756836
-51,361084
-42,196655
-25,881958
-9,164429
-2,5177002
8,761597
12,286377
23,76709
42,800903
43,00232
49,0448
54,986572
60,424805
59,518433
65,3595
56,5979
53,17383
41,4917
40,686035
40,283203
35,147095
31,521606
29,910278
19,73877
10,171509
6,5460205
-0,30212402
-13,293457
-34,744263
-31,32019
-41,592407
-53,07312
-54,483032
-56,69861
-61,431885
-54,885864
-52,267456
-51,965332
-57,504272
-63,546753
-57,70569
-46,829224
-38,168335
-19,335938
-12,890625
-1,9134521
10,171509
24,27063
29,910278
41,592407
46,829224
55,59082
112,18872
153,98254
129,81262
93,255615
58,10852
28,399658
13,998413
7,2509766
1,3092041
-20,74585
-51,159668
-65,56091
-70,69702
-77,24304
-83,08411
-86,709595
-87,213135
-86,8103
-84,191895
-88,82446
-106,64978
-109,57031
-123,87085
-130,31616
-128,60413
-126,38855
-110,27527
-94,16199
-83,184814
-83,99048
-72,61047
-69,89136
-68,17932
-39,578247
-26,083374
-2,0141602
23,867798
53,475952
73,81897
97,58606
116,72058
121,35315
128,90625
125,68359
125,38147
111,68518
95,16907
88,11951
85,09827
79,2572
62,23755
64,55383
57,70569
51,361084
37,161255
16,415405
1,7120361
-8,761597
-16,918945
-33,43506
-42,39807
-45,41931
-42,800903
-45,01648
-41,693115
-35,95276
-31,924438
-29,104614
-32,93152
-17,22107
-12,286377
9,466553
21,954346
25,177002
34,744263
39,37683
49,649048
50,253296
48,138428
49,145508
51,260376
59,1156
54,885864
55,69153
58,309937
60,62622
49,246216
48,641968
42,095947
39,678955
23,464966
28,399658
26,486206
18,127441
15,206909
28,29895
36,4563
32,83081
35,147095
47,131348
44,51294
74,2218
167,1753
292,45605
389,23645
371,41113
278,35693
181,67725
125,68359
20,443726
-113,09509
-250,96436
-376,34583
-459,73206
-498,0011
-460,83984
-392,3584
-317,12952
-217,73071
-128,60413
-49,0448
-36,557007
-71,502686
-124,97864
-140,68909
-108,86536
-71,80481
-19,73877
77,041626
102,62146
54,986572
75,93384
161,83777
188,52539
220,55054
224,98169
240,1886
255,19409
252,47498
259,42383
259,021
244,92188
229,91638
226,08948
191,64734
127,29492
54,0802
-2,5177002
-63,043213
-132,43103
-167,67883
-207,76062
-203,02734
-172,81494
-58,511353
78,25012
150,15564
219,34204
293,56384
282,38525
240,1886
184,09424
162,84485
163,04626
171,0022
134,74731
50,656128
77,645874
208,46558
303,43323
289,1327
174,7284
45,318604
-103,427124
-228,10364
-355,49927
-431,5338
-448,25134
-489,64233
-517,2363
-498,30322
-444,0216
-351,0681
-279,2633
-264,76135
-278,25623
-295,578
-306,05164
-295,17517
-257,9132
-238,07373
-190,94238
-129,00696
-65,76233
5,4382324
93,15491
200,20752
252,27356
250,3601
205,94788
161,13281
146,22803
134,6466
114,60571
87,91809
84,49402
39,678955
0,80566406
-26,385498
-44,110107
-49,346924
-24,27063
-0,9063721
23,364258
49,145508
71,80481
76,034546
67,474365
64,956665
66,36658
-8,761597
-95,773315
-166,57104
-204,43726
-224,17603
-231,82983
-223,67249
-187,92114
-148,04077
-96,98181
-43,203735
7,4523926
67,977905
103,02429
124,072266
154,48608
190,43884
327,60315
575,0427
672,6288
704,2511
682,901
652,89
618,04504
633,9569
613,7146
521,46606
411,79504
322,36633
215,41443
107,05261
24,069214
-39,98108
-102,11792
-170,09583
-245,62683
-295,07446
-332,94067
-383,79822
-434,75647
-458,22144
-447,6471
-426,297
-389,53857
-350,26245
-318,94226
-303,53394
-276,34277
-264,2578
-228,70789
-196,68274
-154,28467
-91,241455
-21,954346
68,78357
143,10608
171,70715
206,75354
248,84949
390,64636
511,29456
507,66907
437,7777
331,02722
231,52771
110,07385
-17,926025
-148,04077
-323,2727
-438,58337
-538,5864
-617,8436
-631,84204
-610,2905
-525,8972
-398,5016
-268,08472
-169,08875
-83,48694
33,737183
137,36572
199,09973
250,56152
247,23816
188,6261
110,980225
81,37207
118,2312
221,3562
329,3152
399,8108
411,2915
392,4591
326,59607
235,55603
136,25793
43,203735
11,782837
3,5247803
20,645142
88,52234
141,19263
187,11548
210,47974
243,81409
226,89514
145,01953
185,00061
509,3811
598,3063
482,29065
340,49377
181,57654
98,49243
218,43567
540,19775
841,4154
934,5703
883,0078
757,62634
568,89954
355,09644
176,44043
143,91174
353,88794
715,9332
797,5067
598,5077
298,0957
-10,675049
-281,6803
-490,448
-646,6461
-796,90247
-954,8126
-1085,2295
-1217,3584
-1264,2883
-1185,6354
-1055,2185
-859,44214
-694,4824
-640,2008
-684,5123
-713,51624
-679,98047
-569,8059
-508,67615
-498,60535
-462,9547
-405,65186
-342,91077
-169,49158
120,547485
683,30383
1034,5734
1124,8077
1053,9093
836,5814
686,12366
541,40625
370,20264
222,36328
87,91809
132,63245
296,6858
441,6046
489,3402
485,71472
451,17188
415,1184
411,99646
309,77783
174,62769
-42,700195
-290,5426
-615,62805
-868,7073
-978,98254
-1032,5592
-1086,7401
-1094,3939
-1087,8479
-1042,8314
-969,21387
-877,9724
-751,886
-614,8224
-486,21826
-329,71802
-177,74963
-155,19104
-215,0116
-224,88098
-132,0282
-36,35559
10,171509
13,998413
-5,4382324
-16,415405
-15,509033
-17,623901
5,9417725
49,749756
97,787476
139,48059
151,46484
153,479
167,88025
171,1029
171,50574
162,03918
159,01794
160,02502
162,54272
167,07458
160,42786
164,35547
208,36487
484,1034
756,21643
903,9551
846,7529
709,4879
548,85864
409,57947
302,32544
197,4884
115,512085
32,528687
-38,168335
-111,8866
-164,95972
-213,40027
-267,37976
-318,53943
-377,75574
-436,66992
-488,73596
-516,43066
-516,6321
-479,57153
-435,76355
-377,95715
-322,86987
-237,6709
-158,61511
-76,638794
18,933105
91,64429
91,241455
68,17932
66,467285
63,74817
59,21631
56,19507
67,77649
71,60339
77,645874
84,695435
79,35791
69,992065
69,992065
70,69702
63,24463
66,970825
60,324097
57,10144
49,850464
39,175415
21,047974
19,839478
5,3375244
3,6254883
0,30212402
-13,293457
-25,579834
-39,88037
-46,02356
-57,10144
-57,10144
-54,68445
-58,309937
-57,000732
-60,72693
-60,324097
-75,631714
-80,56641
-79,96216
-76,7395
-63,74817
-52,670288
-39,175415
-26,78833
-5,7403564
12,185669
31,018066
48,03772
40,88745
49,649048
50,857544
50,354004
44,51294
39,779663
39,47754
36,35559
34,542847
47,131348
32,32727
23,565674
12,991333
12,588501
5,0354004
-9,265137
-16,818237
-33,737183
-46,42639
-52,267456
-58,61206
-60,22339
-66,16516
-66,467285
-59,518433
-68,38074
-66,970825
-65,3595
-64,956665
-61,935425
-54,483032
-48,54126
-37,261963
-23,26355
-15,005493
-5,7403564
4,1290283
117,32483
277,14844
542,61475
644,32983
619,0521
525,9979
413,00354
287,72278
156,80237
45,41931
-15,811157
-59,921265
-71,80481
-110,476685
-139,98413
-184,59778
-233,64258
-266,4734
-312,09412
-333,54492
-314,4104
-281,98242
-267,27905
-271,30737
-280,16968
-268,78967
-162,94556
-74,82605
-7,3516846
59,317017
70,999146
32,93152
4,6325684
-9,667969
-25,579834
-21,450806
-18,026733
-17,623901
-24,069214
-5,5389404
16,616821
-56,19507
-130,11475
-181,77795
-225,98877
-270,60242
-314,10828
-346,53625
-351,0681
-322,36633
-279,56543
-215,21301
-134,04236
-55,08728
2,1148682
28,097534
-6,8481445
-16,71753
20,544434
22,155762
-1,4099121
-43,606567
-57,70569
-65,15808
-61,834717
-60,72693
-53,475952
-33,33435
-4,7332764
0,40283203
0,20141602
-10,775757
-15,609741
-20,74585
-13,998413
-4,7332764
8,560181
20,443726
25,982666
29,104614
23,26355
34,542847
45,822144
48,03772
53,274536
49,749756
53,979492
50,05188
48,641968
50,253296
41,4917
31,622314
20,74585
0,70495605
-19,033813
-27,392578
-27,694702
-26,486206
-32,025146
-36,35559
-38,269043
-35,247803
-39,779663
-40,182495
-32,730103
-41,592407
-34,039307
-43,103027
-66,56799
-79,76074
-83,28552
-98,794556
-112,39014
-121,15173
-115,10925
-87,41455
-55,69153
-32,226562
-7,5531006
10,977173
45,620728
61,532593
69,28711
80,96924
88,32092
89,42871
81,87561
73,013306
65,3595
67,77649
58,71277
37,765503
26,687622
20,443726
12,991333
11,279297
11,380005
0,80566406
-10,070801
-25,479126
-33,132935
-46,224976
-60,324097
-76,43738
-74,020386
-76,538086
-76,7395
-74,72534
-80,96924
-73,41614
-69,28711
-73,61755
-74,42322
-68,58215
-51,663208
-39,578247
-32,025146
-21,652222
-8,963013
9,265137
23,867798
24,975586
38,269043
50,958252
54,18091
60,021973
49,0448
45,117188
38,974
35,95276
33,032227
25,177002
22,961426
17,623901
11,380005
1,7120361
11,077881
-4,5318604
-12,689209
-18,73169
-32,125854
-44,210815
-55,892944
-64,25171
-63,949585
-68,984985
-73,013306
-76,84021
-73,21472
-64,35242
-62,438965
-59,61914
-55,490112
-55,69153
-51,159668
-37,261963
-21,24939
-10,272217
-11,984253
-9,567261
-4,5318604
2,7191162
15,609741
26,486206
34,94568
47,634888
48,742676
46,224976
51,763916
35,046387
34,34143
29,708862
32,528687
23,666382
19,940186
16,415405
11,279297
5,5389404
-6,3446045
-14,401245
-23,26355
-24,673462
-31,219482
-38,47046
-49,850464
-45,41931
-53,57666
-59,61914
-64,453125
-60,827637
-61,12976
-66,87012
-66,26587
-58,914185
-45,217896
-27,996826
-11,077881
0,50354004
10,977173
20,544434
23,062134
26,083374
32,226562
47,232056
46,728516
48,138428
47,03064
40,182495
34,744263
30,212402
29,910278
29,507446
23,062134
7,1502686
-2,9205322
-14,703369
-15,106201
-15,408325
-21,652222
-29,910278
-30,31311
-36,557007
-35,34851
-29,708862
-34,542847
-32,528687
-46,224976
-52,56958
-58,914185
-50,656128
-49,145508
-38,269043
-46,124268
-33,33435
-15,609741
6,4453125
9,768677
15,005493
28,601074
23,666382
42,800903
45,318604
46,224976
53,475952
55,389404
54,0802
57,000732
53,375244
49,54834
43,807983
41,99524
36,557007
27,493286
19,436646
9,063721
6,1431885
2,3162842
2,2155762
-13,394165
-15,408325
-29,507446
-43,00232
-51,461792
-59,921265
-60,22339
-65,3595
-67,474365
-70,89844
-75,22888
-67,77649
-65,56091
-58,813477
-62,338257
-58,71277
-58,511353
-43,606567
-31,521606
-17,623901
-8,157349
1,7120361
10,675049
20,846558
25,076294
23,867798
29,406738
30,615234
32,42798
31,723022
29,708862
31,118774
33,535767
25,177002
26,989746
19,033813
6,2438965
-5,9417725
-12,084961
-9,265137
-15,408325
-23,464966
-38,067627
-42,196655
-55,490112
-69,58923
-64,85596
-68,58215
-69,28711
-77,44446
-76,23596
-72,10693
-67,977905
-63,949585
-60,72693
-59,317017
-50,253296
-29,507446
-17,623901
-6,5460205
-6,1431885
5,5389404
14,401245
21,148682
26,385498
29,708862
27,493286
40,786743
39,779663
40,88745
52,06604
45,822144
52,770996
59,921265
66,16516
64,05029
54,885864
45,41931
34,542847
17,120361
23,062134
3,5247803
-5,3375244
-15,005493
-29,910278
-32,93152
-35,549927
-37,96692
-40,182495
-41,189575
-40,38391
-37,86621
-46,124268
-41,290283
-36,657715
-37,36267
-21,350098
-11,480713
1,1077881
7,5531006
20,040894
19,638062
30,81665
32,42798
45,217896
48,138428
50,454712
55,490112
55,59082
47,03064
42,39807
33,9386
27,593994
18,832397
8,761597
5,0354004
-4,2297363
-7,9559326
-4,3304443
-2,2155762
-2,8198242
-10,070801
-4,3304443
-11,279297
-18,630981
-9,667969
-6,7474365
-10,977173
-10,977173
-11,984253
-16,415405
-21,350098
-24,069214
-26,184082
-21,652222
-17,422485
-17,019653
-7,9559326
1,3092041
14,501953
27,493286
29,708862
38,87329
40,88745
55,993652
58,20923
52,468872
54,281616
53,979492
58,61206
57,20215
41,189575
52,770996
24,472046
21,853638
24,27063
17,926025
9,567261
2,3162842
-1,2084961
-12,286377
-18,22815
-31,82373
-41,189575
-46,92993
-51,05896
-55,892944
-53,778076
-63,546753
-68,38074
-65,56091
-65,66162
-59,014893
-61,331177
-66,76941
-61,12976
-50,656128
-35,95276
-24,472046
-13,595581
0,50354004
3,1219482
18,22815
27,694702
28,29895
40,88745
45,822144
45,52002
40,88745
45,822144
40,283203
37,261963
30,715942
26,184082
25,076294
20,24231
13,293457
4,2297363
-4,6325684
-0,10070801
-3,5247803
-16,21399
-32,125854
-36,154175
-52,56958
-59,21631
-57,907104
-53,878784
-56,295776
-59,71985
-59,1156
-53,375244
-50,656128
-50,454712
-45,721436
-43,606567
-30,111694
-22,860718
-11,279297
2,9205322
14,904785
21,652222
31,420898
48,138428
47,836304
51,965332
56,497192
58,914185
54,281616
47,735596
49,95117
42,49878
45,217896
44,41223
39,47754
33,33435
28,701782
20,343018
17,22107
8,358765
2,1148682
-2,7191162
-13,394165
-17,22107
-29,910278
-33,535767
-26,889038
-37,564087
-39,47754
-40,182495
-38,571167
-37,261963
-46,02356
-43,203735
-38,067627
-33,132935
-26,78833
-5,4382324
-6,3446045
13,092041
26,28479
37,564087
51,159668
61,73401
70,69702
73,61755
77,948
90,33508
83,78906
89,42871
84,09119
81,87561
68,984985
67,37366
67,37366
58,10852
47,03064
37,765503
30,715942
30,111694
19,537354
13,192749
-1,1077881
-9,063721
-9,063721
-13,192749
-17,019653
-20,544434
-26,989746
-26,28479
-27,29187
-35,147095
-36,657715
-40,786743
-37,96692
-26,586914
-13,394165
8,862305
23,968506
36,154175
46,224976
58,007812
69,08569
66,970825
71,502686
79,055786
84,09119
80,4657
85,90393
80,86853
74,82605
73,31543
73,81897
68,38074
61,6333
54,0802
43,40515
31,924438
34,240723
32,226562
18,630981
20,040894
1,3092041
-3,4240723
-11,984253
-16,21399
-16,516113
-22,055054
-23,76709
-22,457886
-22,457886
-21,551514
-18,630981
-14,703369
-13,796997
-7,9559326
0,20141602
11,178589
24,069214
36,35559
42,49878
47,634888
51,864624
54,483032
71,40198
77,44446
82,58057
77,84729
78,95508
75,531006
75,93384
66,6687
60,62622
56,09436
49,44763
41,39099
30,212402
19,23523
17,825317
7,8552246
3,8269043
-3,6254883
-13,796997
-18,026733
-36,657715
-44,0094
-40,182495
-54,68445
-52,770996
-54,18091
-55,490112
-59,014893
-60,928345
-63,74817
-56,799316
-45,92285
-20,74585
-5,9417725
3,4240723
18,026733
21,24939
34,44214
43,203735
43,707275
47,43347
55,389404
57,504272
55,490112
58,410645
60,928345
60,021973
51,763916
46,42639
36,557007
35,85205
26,687622
18,429565
13,998413
12,588501
10,171509
-0,9063721
-2,2155762
-16,616821
-30,615234
-37,664795
-43,103027
-40,686035
-42,297363
-41,693115
-38,269043
-39,175415
-37,36267
-38,269043
-34,34143
-27,593994
-32,528687
-11,581421
10,372925
13,595581
25,27771
34,039307
46,224976
55,389404
67,37366
77,44446
84,191895
76,84021
86,00464
90,03296
90,93933
87,81738
77,84729
69,38782
64,25171
63,446045
61,6333
52,368164
47,53418
45,41931
34,44214
26,687622
11,883545
-3,8269043
-13,897705
-19,638062
-16,616821
-19,033813
-28,601074
-29,910278
-33,636475
-38,36975
-49,246216
-58,914185
-65,963745
-61,331177
-49,850464
-35,95276
-21,24939
-1,4099121
8,258057
19,033813
28,399658
38,168335
43,00232
47,93701
60,12268
65,76233
66,76941
71,60339
77,041626
67,17224
57,504272
50,253296
53,878784
49,246216
37,765503
19,537354
9,970093
12,185669
5,5389404
-0,80566406
-1,2084961
-16,012573
-18,328857
-29,708862
-30,31311
-33,737183
-36,95984
-40,585327
-41,693115
-48,843384
-48,239136
-41,793823
-48,339844
-51,05896
-47,53418
-39,779663
-22,76001
-15,106201
-1,7120361
8,157349
20,443726
34,744263
38,067627
49,44763
50,05188
49,44763
46,325684
51,864624
49,0448
51,461792
43,40515
42,196655
44,110107
39,37683
25,881958
16,918945
7,6538086
5,9417725
-2,5177002
-6,4453125
-12,084961
-26,889038
-32,730103
-42,297363
-52,871704
-50,756836
-59,21631
-62,13684
-65,15808
-69,89136
-63,949585
-63,949585
-64,25171
-54,885864
-55,08728
-49,246216
-33,737183
-21,047974
-14,401245
-4,7332764
1,3092041
17,825317
21,450806
40,38391
61,331177
55,490112
64,151
72,81189
56,09436
59,317017
55,892944
45,822144
38,36975
36,154175
26,687622
16,516113
7,1502686
8,761597
1,5106201
-12,890625
-17,120361
-23,968506
-36,758423
-47,332764
-56,799316
-55,892944
-58,20923
-54,281616
-46,829224
-40,182495
-43,304443
-41,793823
-39,88037
-40,686035
-32,93152
-26,687622
-12,991333
-0,10070801
6,1431885
12,890625
25,881958
35,85205
48,742676
50,354004
51,461792
53,274536
50,454712
54,483032
45,822144
47,836304
58,20923
50,253296
44,0094
34,039307
26,083374
22,659302
16,516113
15,609741
14,401245
9,063721
5,1361084
-9,365845
-17,22107
-29,910278
-44,815063
-48,54126
-49,749756
-50,354004
-50,756836
-45,41931
-43,40515
-33,132935
-31,420898
-36,254883
-22,25647
-20,645142
-11,380005
-0,80566406
11,984253
10,171509
22,659302
29,30603
33,636475
43,807983
45,620728
51,260376
53,878784
44,41223
42,297363
31,521606
27,996826
25,177002
34,34143
31,118774
29,708862
30,413818
26,586914
20,74585
23,364258
10,171509
1,7120361
-10,977173
-11,581421
-19,839478
-15,911865
-34,94568
-37,060547
-35,549927
-36,4563
-40,98816
-39,074707
-44,714355
-45,620728
-45,01648
-41,793823
-32,125854
-19,033813
-14,804077
1,1077881
8,258057
13,796997
23,867798
33,636475
38,974
47,634888
49,0448
48,843384
43,606567
42,90161
36,053467
31,219482
32,42798
22,659302
18,73169
5,6396484
0,10070801
-14,703369
-14,804077
-11,782837
-19,839478
-22,357178
-31,924438
-36,254883
-47,93701
-47,836304
-52,871704
-60,525513
-51,05896
-52,56958
-55,69153
-56,69861
-51,260376
-49,44763
-50,05188
-46,325684
-35,650635
-23,162842
-12,890625
-1,8127441
5,3375244
23,26355
32,226562
38,47046
41,693115
49,145508
50,958252
47,332764
47,131348
47,232056
45,822144
39,678955
28,399658
21,75293
24,874878
19,335938
21,450806
21,551514
7,1502686
3,9276123
-8,459473
-14,300537
-27,593994
-37,86621
-45,01648
-56,5979
-46,02356
-52,871704
-51,05896
-49,749756
-55,490112
-48,138428
-52,368164
-47,836304
-46,42639
-38,671875
-29,708862
-14,401245
-7,1502686
7,8552246
13,192749
28,701782
34,039307
34,140015
46,124268
51,05896
50,05188
55,69153
46,5271
51,361084
49,346924
48,03772
42,39807
40,786743
34,34143
30,31311
17,72461
12,588501
10,070801
3,9276123
3,9276123
-8,761597
-22,357178
-29,80957
-38,671875
-48,843384
-46,92993
-48,339844
-51,05896
-53,878784
-56,5979
-53,274536
-46,627808
-48,239136
-46,627808
-41,290283
-28,399658
-19,940186
-5,1361084
11,984253
11,480713
23,062134
38,067627
40,38391
43,00232
59,014893
58,813477
64,25171
58,511353
55,59082
52,06604
40,38391
31,723022
27,090454
35,147095
25,27771
9,869385
4,9346924
4,5318604
4,2297363
5,5389404
-6,6467285
-23,364258
-33,032227
-41,693115
-39,175415
-45,01648
-57,907104
-49,346924
-52,468872
-47,232056
-46,42639
-41,4917
-45,92285
-43,203735
-42,800903
-31,723022
-22,558594
-7,0495605
5,2368164
8,157349
25,076294
37,96692
41,592407
46,829224
53,878784
48,843384
55,490112
53,878784
51,361084
54,18091
49,145508
43,203735
33,132935
28,097534
15,609741
16,314697
6,0424805
6,1431885
-0,10070801
-1,5106201
-12,185669
-26,687622
-37,46338
-43,304443
-50,656128
-49,749756
-53,878784
-56,69861
-58,914185
-59,21631
-52,770996
-47,735596
-48,641968
-41,39099
-33,132935
-15,609741
-15,408325
-5,4382324
13,394165
19,436646
28,701782
43,707275
44,210815
45,41931
51,05896
54,58374
60,827637
57,60498
47,634888
48,742676
38,269043
29,910278
30,917358
25,378418
18,429565
14,703369
7,1502686
8,358765
5,0354004
2,1148682
-13,796997
-22,457886
-32,730103
-45,620728
-50,55542
-52,267456
-57,60498
-60,525513
-57,806396
-56,295776
-55,08728
-57,20215
-51,159668
-44,815063
-32,83081
-27,29187
-3,5247803
0,50354004
6,2438965
16,314697
28,500366
36,154175
44,51294
52,468872
36,758423
39,779663
44,613647
42,90161
44,210815
42,49878
33,233643
30,31311
27,896118
26,28479
14,602661
5,9417725
-10,977173
-3,1219482
-5,4382324
-14,602661
-23,062134
-29,507446
-38,571167
-41,39099
-44,91577
-52,871704
-55,08728
-50,958252
-56,900024
-60,22339
-52,972412
-47,634888
-48,742676
-45,620728
-45,318604
-34,94568
-17,321777
-11,480713
3,9276123
8,157349
37,261963
35,247803
36,95984
52,770996
55,08728
51,461792
54,281616
61,331177
50,454712
46,124268
37,86621
36,053467
25,579834
22,055054
18,429565
12,689209
8,258057
2,5177002
0,10070801
-3,4240723
-16,21399
-20,040894
-29,003906
-37,261963
-46,325684
-59,317017
-59,014893
-63,24463
-60,424805
-55,59082
-56,69861
-54,281616
-51,965332
-55,892944
-50,253296
-36,35559
-19,033813
-13,998413
-1,1077881
3,3233643
16,616821
29,910278
42,095947
47,232056
52,368164
48,742676
51,461792
46,02356
49,246216
54,0802
42,800903
41,592407
34,039307
33,33435
20,74585
7,7545166
12,084961
7,3516846
-2,6184082
-5,7403564
-22,155762
-26,586914
-32,025146
-39,578247
-44,51294
-44,0094
-43,606567
-50,656128
-54,68445
-52,56958
-57,60498
-48,641968
-40,283203
-38,067627
-43,304443
-32,528687
-18,328857
-7,4523926
7,1502686
12,084961
25,982666
33,233643
44,613647
48,94409
52,770996
49,0448
55,18799
50,05188
45,620728
41,793823
35,247803
31,018066
17,926025
16,818237
11,984253
8,258057
7,1502686
8,761597
5,7403564
5,3375244
-2,0141602
-10,876465
-16,415405
-14,401245
-23,464966
-26,486206
-27,090454
-34,542847
-32,528687
-35,147095
-32,528687
-31,622314
-27,896118
-29,708862
-28,903198
-19,134521
-2,0141602
4,9346924
15,509033
19,134521
29,104614
42,599487
52,468872
52,770996
60,62622
62,942505
65,25879
57,302856
45,52002
52,871704
45,217896
34,34143
36,154175
32,730103
19,940186
11,984253
5,1361084
3,2226562
-1,9134521
-4,5318604
-13,796997
-28,903198
-38,671875
-50,05188
-53,17383
-52,871704
-59,21631
-47,43347
-56,5979
-61,73401
-55,490112
-60,525513
-57,806396
-47,53418
-44,613647
-32,528687
-12,689209
-4,6325684
2,9205322
15,206909
25,076294
37,96692
38,87329
48,843384
52,368164
53,475952
48,138428
44,41223
40,98816
42,39807
32,025146
25,479126
13,998413
3,4240723
1,6113281
-4,5318604
-9,365845
-11,178589
-8,761597
-20,24231
-33,83789
-42,095947
-51,361084
-56,799316
-66,87012
-68,58215
-73,21472
-66,970825
-66,56799
-68,28003
-59,820557
-61,029053
-61,834717
-62,539673
-50,454712
-38,269043
-26,385498
-10,775757
-4,8339844
4,1290283
19,537354
36,4563
34,84497
39,074707
48,44055
53,778076
52,368164
45,822144
49,649048
43,50586
43,00232
35,247803
30,917358
26,184082
21,652222
13,998413
11,380005
11,581421
3,7261963
-1,4099121
-14,199829
-23,364258
-31,32019
-33,737183
-41,793823
-51,461792
-47,43347
-47,53418
-39,175415
-46,224976
-46,829224
-44,0094
-50,756836
-42,196655
-31,622314
-22,558594
-4,7332764
8,056641
8,963013
16,516113
31,420898
42,800903
42,297363
51,05896
55,892944
58,20923
64,151
57,504272
47,836304
51,965332
40,283203
41,592407
37,664795
35,046387
20,846558
11,984253
0,60424805
3,2226562
-5,1361084
-7,9559326
-17,72461
-28,80249
-38,168335
-42,599487
-39,578247
-46,224976
-52,670288
-53,878784
-54,281616
-49,0448
-49,246216
-43,90869
-47,836304
-44,41223
-39,779663
-39,98108
-23,76709
-10,876465
6,5460205
10,876465
20,645142
31,924438
34,34143
45,41931
53,878784
46,325684
53,778076
58,20923
46,829224
44,51294
35,751343
38,671875
39,47754
24,874878
19,033813
13,293457
14,199829
14,401245
9,768677
2,5177002
-8,056641
-23,666382
-36,254883
-45,822144
-51,864624
-55,892944
-58,20923
-54,58374
-52,871704
-51,159668
-46,627808
-45,01648
-51,663208
-51,05896
-37,86621
-25,076294
-11,581421
-7,4523926
2,3162842
3,6254883
22,76001
29,708862
39,175415
50,05188
45,318604
58,007812
59,1156
55,59082
54,68445
48,843384
40,98816
30,917358
29,708862
31,521606
14,703369
8,761597
3,8269043
1,1077881
-4,5318604
-10,272217
-24,673462
-27,996826
-33,233643
-42,599487
-52,267456
-49,649048
-49,246216
-55,59082
-60,324097
-52,368164
-47,735596
-49,649048
-49,850464
-42,39807
-39,276123
-25,680542
-14,501953
1,2084961
4,4311523
9,466553
21,350098
37,564087
43,707275
53,475952
49,649048
53,67737
61,935425
55,892944
54,0802
47,43347
39,678955
32,730103
23,364258
22,558594
9,365845
4,7332764
-1,9134521
1,5106201
-7,8552246
-11,782837
-20,443726
-30,413818
-40,081787
-51,260376
-44,0094
-52,267456
-51,864624
-50,857544
-58,410645
-60,62622
-58,309937
-62,74109
-50,253296
-43,807983
-46,224976
-34,34143
-22,860718
-10,775757
-0,80566406
13,192749
22,155762
33,535767
40,686035
44,41223
47,634888
52,06604
47,232056
42,297363
41,189575
38,47046
33,132935
29,003906
18,73169
21,853638
9,768677
5,7403564
4,1290283
-3,3233643
-8,761597
-11,581421
-29,003906
-42,297363
-44,110107
-49,54834
-55,993652
-59,518433
-65,3595
-64,151
-60,525513
-62,13684
-48,641968
-59,317017
-58,914185
-58,511353
-46,124268
-32,730103
-17,019653
-9,265137
0,9063721
16,616821
23,26355
21,148682
28,097534
40,182495
43,606567
45,318604
43,00232
40,585327
37,765503
40,98816
43,90869
36,557007
22,76001
23,464966
19,839478
12,588501
5,3375244
-1,4099121
-10,574341
-14,804077
-25,982666
-35,34851
-39,37683
-46,224976
-56,69861
-52,770996
-57,302856
-55,892944
-52,670288
-51,864624
-58,61206
-51,965332
-54,0802
-46,325684
-41,290283
-30,31311
-14,904785
-8,963013
6,9488525
19,940186
32,226562
28,701782
35,44922
39,98108
44,0094
37,664795
42,800903
39,47754
36,85913
30,715942
20,24231
29,30603
16,012573
14,602661
-1,8127441
-6,0424805
-4,4311523
-8,560181
-9,768677
-12,890625
-18,832397
-20,141602
-21,652222
-28,601074
-32,83081
-33,737183
-29,30603
-25,680542
-27,29187
-25,78125
-25,378418
-29,708862
-25,076294
-24,27063
-26,78833
-18,530273
-9,365845
3,2226562
7,1502686
18,530273
25,378418
31,521606
35,147095
41,693115
44,714355
49,0448
45,318604
45,92285
44,0094
48,843384
47,53418
29,507446
30,81665
26,687622
17,422485
11,883545
10,473633
4,0283203
-1,3092041
-5,7403564
-22,558594
-31,018066
-42,800903
-50,656128
-56,900024
-51,260376
-55,792236
-54,885864
-52,670288
-54,281616
-55,490112
-55,389404
-56,69861
-45,01648
-46,627808
-36,35559
-22,055054
-5,1361084
6,1431885
14,703369
23,968506
45,52002
41,99524
47,836304
45,117188
45,92285
52,871704
46,5271
44,110107
48,03772
33,83789
34,140015
31,32019
26,989746
14,501953
10,372925
9,768677
4,9346924
0,40283203
-9,063721
-22,155762
-38,36975
-49,0448
-51,663208
-52,56958
-54,483032
-61,23047
-59,61914
-58,813477
-59,518433
-61,029053
-56,69861
-46,728516
-45,822144
-39,779663
-27,29187
-11,782837
-6,7474365
5,3375244
16,818237
19,436646
26,586914
31,723022
41,89453
49,145508
50,656128
56,295776
46,92993
38,36975
38,47046
41,89453
35,650635
32,226562
25,076294
26,687622
11,782837
5,2368164
-0,70495605
-6,5460205
-16,818237
-26,385498
-32,528687
-43,40515
-49,850464
-50,454712
-55,08728
-57,000732
-53,274536
-58,914185
-62,13684
-54,785156
-55,389404
-53,979492
-54,0802
-39,98108
-29,507446
-15,509033
-4,1290283
13,696289
19,134521
21,350098
35,751343
35,95276
44,613647
52,468872
50,354004
54,382324
59,417725
60,928345
54,483032
46,92993
45,92285
39,98108
32,93152
21,853638
14,602661
5,3375244
6,5460205
1,6113281
-5,8410645
-21,148682
-30,715942
-39,98108
-51,965332
-52,06604
-55,993652
-55,288696
-44,110107
-53,979492
-55,288696
-54,0802
-54,281616
-46,02356
-40,686035
-36,4563
-23,062134
-11,984253
-0,50354004
3,1219482
13,192749
26,28479
41,99524
47,53418
52,972412
52,972412
50,55542
57,10144
55,490112
59,014893
49,649048
45,822144
41,89453
34,94568
29,910278
21,24939
11,782837
11,279297
7,8552246
0,50354004
-0,20141602
-18,429565
-27,090454
-37,36267
-47,03064
-51,05896
-48,94409
-49,44763
-46,627808
-50,253296
-44,815063
-43,50586
-45,318604
-50,958252
-49,0448
-49,649048
-40,585327
-24,371338
-15,911865
-3,3233643
2,4169922
26,78833
30,111694
35,549927
33,535767
45,217896
45,620728
50,05188
39,98108
44,311523
38,772583
46,627808
31,521606
24,371338
26,083374
20,74585
21,652222
13,494873
15,509033
6,0424805
-3,5247803
-13,897705
-29,003906
-39,074707
-42,49878
-51,965332
-56,69861
-64,956665
-62,539673
-60,12268
-57,403564
-58,410645
-49,44763
-55,792236
-45,822144
-38,168335
-24,77417
-14,199829
-10,977173
1,7120361
19,839478
25,479126
31,118774
33,9386
46,224976
42,800903
44,41223
45,620728
50,656128
43,606567
39,98108
29,406738
25,982666
29,708862
16,616821
13,394165
4,5318604
-0,30212402
-4,9346924
-2,3162842
-7,2509766
-23,968506
-30,715942
-36,758423
-43,606567
-53,274536
-55,389404
-51,965332
-53,778076
-55,490112
-54,68445
-57,000732
-58,410645
-52,267456
-51,260376
-36,053467
-21,24939
-10,574341
-1,6113281
6,4453125
13,595581
23,867798
28,29895
40,081787
48,54126
56,497192
53,475952
60,827637
49,246216
47,232056
44,210815
38,571167
27,090454
27,191162
25,680542
14,703369
0,9063721
1,6113281
0,20141602
-4,4311523
-7,5531006
-24,371338
-38,671875
-40,585327
-41,290283
-41,89453
-49,145508
-51,864624
-47,03064
-53,475952
-52,267456
-57,403564
-48,138428
-44,613647
-43,203735
-32,32727
-19,033813
-14,804077
-5,5389404
7,1502686
12,588501
32,42798
41,592407
45,41931
50,454712
50,857544
52,972412
50,958252
54,281616
48,641968
46,224976
36,154175
32,528687
18,630981
20,040894
13,595581
7,7545166
1,7120361
6,6467285
-6,7474365
-5,7403564
-16,918945
-29,910278
-40,081787
-52,166748
-58,61206
-54,68445
-51,159668
-56,69861
-57,806396
-50,857544
-50,253296
-51,461792
-47,53418
-44,91577
-38,36975
-21,652222
-4,3304443
1,1077881
22,155762
18,026733
30,111694
35,751343
41,89453
51,260376
62,13684
59,820557
59,921265
51,461792
55,490112
54,0802
53,274536
41,89453
39,37683
35,147095
24,874878
13,796997
12,890625
7,7545166
-3,5247803
-11,581421
-22,25647
-27,191162
-36,35559
-41,39099
-46,42639
-48,54126
-58,309937
-58,007812
-59,820557
-57,000732
-55,490112
-53,375244
-49,246216
-46,02356
-43,707275
-25,378418
-15,710449
-7,3516846
3,7261963
21,24939
27,493286
31,118774
36,557007
45,318604
48,843384
51,5625
51,159668
50,05188
45,822144
43,707275
38,671875
29,708862
24,27063
20,645142
7,7545166
-1,9134521
-0,60424805
-2,9205322
-2,0141602
-13,796997
-18,73169
-23,867798
-30,111694
-33,132935
-32,93152
-37,060547
-32,025146
-40,585327
-37,96692
-50,857544
-44,210815
-49,246216
-42,196655
-42,800903
-31,723022
-20,040894
-7,3516846
3,6254883
12,286377
22,76001
31,521606
38,36975
45,721436
54,483032
57,20215
54,18091
52,972412
50,05188
53,274536
50,152588
43,50586
32,025146
27,996826
25,076294
12,991333
5,3375244
-1,3092041
-0,9063721
-8,560181
-14,099121
-23,666382
-28,80249
-35,34851
-48,843384
-45,117188
-51,5625
-58,71277
-58,511353
-58,61206
-52,267456
-49,44763
-49,346924
-46,325684
-46,92993
-38,974
-26,989746
-15,509033
-3,9276123
7,3516846
18,630981
31,420898
39,578247
38,772583
55,792236
56,295776
57,10144
60,12268
48,742676
42,39807
41,39099
30,514526
28,29895
17,825317
21,450806
12,387085
3,4240723
-3,7261963
-0,50354004
-10,775757
-15,005493
-30,413818
-40,585327
-46,42639
-55,892944
-52,770996
-46,627808
-56,69861
-56,295776
-50,958252
-48,641968
-49,145508
-47,43347
-53,67737
-46,92993
-44,91577
-26,385498
-14,401245
-11,178589
1,8127441
8,660889
21,551514
42,90161
36,657715
47,43347
52,368164
45,217896
56,09436
50,253296
44,0094
44,0094
50,958252
31,924438
28,500366
15,811157
17,22107
9,265137
5,7403564
-6,9488525
-6,6467285
-17,422485
-30,212402
-37,36267
-45,117188
-54,58374
-54,58374
-56,09436
-57,806396
-57,10144
-62,13684
-60,424805
-60,424805
-55,59082
-56,396484
-50,253296
-46,224976
-34,643555
-18,73169
-0,30212402
10,574341
16,516113
20,544434
28,80249
29,910278
41,189575
41,189575
44,0094
44,51294
44,714355
44,311523
37,36267
31,521606
17,019653
8,358765
-0,10070801
-11,782837
-12,487793
-18,026733
-22,25647
-25,27771
-31,32019
-39,276123
-42,39807
-39,779663
-43,707275
-34,140015
-31,118774
-28,701782
-29,507446
-28,80249
-38,47046
-41,39099
-33,132935
-15,408325
-30,413818
-25,479126
-13,494873
-5,3375244
2,9205322
11,380005
18,026733
29,104614
43,103027
47,53418
55,490112
56,900024
57,302856
52,871704
52,368164
49,649048
47,53418
40,686035
34,542847
32,93152
29,708862
15,911865
4,5318604
9,768677
6,1431885
3,5247803
-4,3304443
-23,26355
-31,219482
-34,84497
-39,88037
-48,843384
-54,281616
-60,324097
-58,20923
-56,19507
-49,145508
-52,871704
-50,454712
-46,5271
-46,02356
-40,182495
-26,989746
-14,401245
-4,9346924
7,7545166
16,314697
22,155762
29,406738
33,9386
36,35559
52,166748
51,763916
59,71985
60,827637
48,94409
42,800903
29,30603
15,609741
7,1502686
-6,1431885
-15,811157
-17,623901
-31,924438
-28,097534
-33,737183
-39,779663
-52,871704
-66,6687
-71,40198
-77,24304
-81,27136
-80,4657
-82,07703
-92,85278
-90,5365
-90,83862
-87,716675
-90,234375
-86,709595
-74,42322
-73,11401
-57,504272
-52,267456
-41,189575
-27,996826
-14,602661
4,7332764
14,804077
20,544434
23,565674
26,28479
27,896118
23,364258
19,436646
24,874878
20,947266
19,033813
11,178589
11,984253
7,4523926
3,4240723
-4,9346924
-8,358765
-8,056641
-16,21399
-27,896118
-25,479126
-42,90161
-35,34851
-51,260376
-55,288696
-57,907104
-59,921265
-54,18091
-50,152588
-52,770996
-45,92285
-50,253296
-51,5625
-42,39807
-25,982666
-25,076294
-12,487793
-4,2297363
18,429565
15,509033
26,889038
39,47754
46,627808
47,634888
47,03064
48,03772
54,281616
55,892944
55,59082
41,592407
36,95984
32,730103
23,464966
19,033813
21,954346
9,768677
4,4311523
8,258057
-3,5247803
-11,984253
-21,450806
-29,910278
-38,571167
-37,664795
-45,92285
-47,836304
-51,361084
-41,793823
-46,92993
-50,152588
-52,56958
-48,138428
-49,145508
-48,843384
-32,125854
-20,24231
-9,667969
-8,459473
7,5531006
21,047974
31,32019
42,297363
40,88745
44,613647
50,958252
55,490112
54,0802
57,504272
58,10852
43,90869
35,549927
32,32727
30,615234
19,033813
14,300537
14,300537
3,9276123
6,1431885
3,9276123
-5,6396484
-12,487793
-23,76709
-26,184082
-43,606567
-49,246216
-51,159668
-54,68445
-48,641968
-54,58374
-51,864624
-54,281616
-42,700195
-38,067627
-34,44214
-23,565674
-9,365845
1,7120361
6,4453125
13,796997
23,464966
33,636475
32,93152
47,43347
57,20215
57,403564
59,21631
57,504272
48,138428
51,461792
44,815063
45,41931
37,664795
32,93152
27,996826
13,998413
2,9205322
-0,10070801
-4,8339844
-9,164429
-19,033813
-18,530273
-32,93152
-36,95984
-42,90161
-47,232056
-49,54834
-38,067627
-35,751343
-41,793823
-39,37683
-44,311523
-54,785156
-49,95117
-45,822144
-27,694702
-14,401245
4,3304443
22,860718
30,514526
37,765503
43,606567
54,483032
55,08728
63,14392
62,942505
57,10144
67,57507
55,892944
54,382324
53,57666
44,41223
37,664795
37,765503
24,874878
13,092041
10,070801
8,862305
4,2297363
15,005493
-6,0424805
-17,321777
-33,032227
-38,47046
-48,239136
-49,0448
-46,5271
-55,892944
-54,0802
-54,885864
-50,857544
-55,792236
-57,806396
-61,935425
-50,857544
-38,067627
-23,867798
-13,595581
-4,3304443
3,6254883
14,199829
29,80957
38,87329
46,829224
56,497192
63,848877
62,942505
67,8772
68,78357
62,539673
58,914185
49,145508
47,634888
39,578247
34,34143
19,940186
11,984253
7,6538086
7,4523926
-1,1077881
-12,185669
-26,28479
-31,118774
-30,615234
-44,51294
-47,131348
-50,152588
-47,232056
-49,246216
-50,55542
-46,02356
-51,461792
-49,346924
-52,972412
-48,339844
-37,46338
-17,22107
-7,9559326
-4,1290283
0,9063721
11,883545
30,111694
32,83081
40,98816
42,800903
56,09436
54,483032
54,382324
45,92285
42,49878
39,98108
32,32727
29,708862
27,493286
22,76001
18,73169
8,459473
2,1148682
4,7332764
-5,4382324
-15,710449
-30,212402
-31,82373
-41,290283
-42,800903
-38,974
-42,800903
-52,468872
-55,69153
-57,000732
-57,000732
-55,892944
-55,08728
-52,468872
-51,5625
-31,32019
-18,832397
-13,998413
0,10070801
11,480713
19,839478
30,514526
34,94568
39,678955
39,37683
46,42639
48,239136
51,763916
47,03064
46,42639
42,196655
38,974
28,80249
30,715942
25,881958
18,22815
3,5247803
0,40283203
6,1431885
-0,30212402
-9,265137
-28,601074
-36,053467
-44,0094
-47,131348
-53,878784
-52,166748
-57,504272
-55,892944
-55,18799
-53,475952
-56,09436
-49,246216
-46,627808
-44,613647
-37,36267
-21,450806
-16,818237
-5,1361084
0,50354004
12,487793
18,127441
30,917358
38,772583
39,98108
47,232056
45,52002
45,41931
45,620728
44,51294
36,758423
30,111694
25,177002
21,047974
12,185669
10,977173
1,0070801
3,3233643
-1,2084961
-7,9559326
-18,026733
-28,701782
-32,125854
-41,290283
-49,649048
-52,468872
-54,68445
-55,08728
-58,007812
-53,67737
-57,806396
-47,93701
-52,468872
-51,864624
-47,93701
-39,578247
-22,055054
-13,494873
-1,6113281
5,2368164
10,171509
20,443726
28,601074
35,147095
44,815063
51,5625
55,288696
53,878784
46,5271
50,454712
42,095947
35,247803
27,896118
19,839478
16,415405
17,019653
10,070801
17,623901
18,026733
9,365845
2,3162842
-5,4382324
-14,904785
-21,954346
-28,500366
-29,910278
-39,47754
-38,47046
-46,627808
-46,5271
-44,0094
-44,613647
-47,836304
-46,224976
-37,060547
-23,162842
-9,869385
-5,0354004
14,804077
12,588501
23,666382
40,182495
49,145508
48,44055
59,820557
64,25171
61,935425
58,813477
55,69153
51,461792
36,154175
39,98108
34,643555
33,233643
29,507446
24,472046
19,033813
8,963013
11,480713
2,5177002
-12,689209
-22,76001
-33,33435
-35,95276
-49,850464
-53,979492
-53,375244
-51,663208
-57,504272
-56,900024
-59,1156
-54,986572
-50,857544
-40,88745
-49,44763
-44,41223
-26,889038
-12,185669
-8,358765
3,5247803
13,595581
22,961426
29,104614
40,081787
46,5271
57,70569
54,382324
48,742676
48,843384
47,232056
43,00232
34,94568
32,226562
25,680542
15,811157
8,358765
10,372925
1,5106201
-1,5106201
-11,178589
-13,595581
-22,155762
-26,083374
-33,233643
-43,807983
-46,02356
-49,54834
-45,721436
-46,02356
-49,44763
-41,290283
-43,103027
-43,606567
-40,081787
-32,025146
-32,730103
-13,394165
-10,171509
-5,3375244
7,3516846
18,026733
38,47046
45,01648
46,728516
53,17383
60,62622
61,12976
62,64038
64,151
56,09436
42,90161
38,168335
27,392578
29,608154
26,889038
20,443726
13,595581
9,365845
12,991333
2,9205322
-12,588501
-17,120361
-37,96692
-50,656128
-56,09436
-42,90161
-53,475952
-58,007812
-58,61206
-59,61914
-53,878784
-50,958252
-53,07312
-41,39099
-46,627808
-34,542847
-11,984253
0,50354004
6,8481445
16,616821
22,558594
29,708862
31,924438
39,578247
50,55542
50,05188
45,52002
52,468872
53,375244
43,00232
44,714355
38,671875
29,104614
28,097534
19,436646
10,171509
6,1431885
8,056641
-0,30212402
0,50354004
-9,667969
-22,155762
-29,30603
-38,067627
-40,585327
-42,800903
-48,54126
-50,55542
-55,08728
-53,17383
-48,138428
-45,117188
-51,5625
-44,613647
-45,620728
-36,4563
-20,544434
-11,682129
1,7120361
13,595581
27,090454
30,917358
38,772583
44,210815
47,43347
45,318604
50,152588
49,246216
52,770996
48,641968
37,161255
41,290283
34,744263
26,083374
19,436646
9,466553
-3,7261963
1,6113281
-5,8410645
-17,623901
-17,22107
-28,80249
-41,088867
-49,850464
-53,475952
-56,19507
-57,60498
-61,73401
-60,424805
-52,972412
-58,20923
-59,317017
-52,871704
-44,91577
-40,48462
-32,730103
-24,472046
-13,394165
-7,8552246
2,9205322
19,134521
31,32019
34,140015
39,98108
48,843384
58,71277
53,57666
56,497192
50,253296
43,606567
37,96692
26,889038
18,73169
20,544434
12,387085
6,2438965
1,4099121
7,3516846
5,1361084
-4,0283203
-3,9276123
-20,141602
-24,975586
-33,33435
-39,88037
-38,671875
-47,03064
-55,490112
-52,670288
-49,850464
-50,253296
-57,000732
-50,958252
-46,5271
-41,793823
-36,758423
-24,472046
-18,22815
-0,30212402
6,7474365
21,148682
27,694702
32,93152
32,730103
43,203735
50,958252
52,368164
50,454712
48,138428
49,346924
42,90161
32,730103
31,622314
20,645142
15,206909
7,7545166
-2,4169922
3,3233643
2,1148682
-1,1077881
-7,8552246
-19,940186
-24,874878
-30,917358
-36,657715
-43,50586
-53,07312
-45,822144
-43,90869
-44,110107
-48,742676
-52,368164
-46,325684
-41,290283
-35,34851
-33,737183
-20,846558
-13,998413
5,3375244
13,092041
23,162842
32,32727
41,89453
52,06604
55,490112
58,007812
53,778076
62,64038
57,70569
49,246216
43,103027
39,074707
40,38391
20,947266
20,443726
10,675049
6,4453125
-0,50354004
2,9205322
-8,761597
-17,22107
-26,083374
-32,025146
-38,974
-41,39099
-48,94409
-50,354004
-57,20215
-57,806396
-48,641968
-61,12976
-54,0802
-57,302856
-56,19507
-52,06604
-42,800903
-21,551514
-16,012573
-2,7191162
11,984253
21,450806
30,615234
37,261963
40,98816
53,17383
52,871704
54,18091
50,152588
50,857544
44,613647
41,592407
38,974
33,737183
24,069214
19,537354
16,71753
5,7403564
2,5177002
3,6254883
-7,0495605
-18,127441
-23,666382
-35,650635
-41,793823
-48,44055
-51,461792
-49,649048
-60,22339
-56,295776
-52,468872
-49,649048
-49,649048
-43,807983
-36,053467
-38,269043
-30,514526
-15,911865
-14,401245
4,5318604
17,623901
18,630981
32,730103
42,800903
43,50586
49,749756
49,346924
46,42639
38,772583
44,41223
44,110107
29,507446
38,168335
31,723022
34,744263
17,321777
10,977173
2,1148682
-2,0141602
0,80566406
2,7191162
-11,178589
-27,191162
-33,535767
-51,864624
-48,641968
-54,483032
-51,663208
-52,368164
-53,878784
-56,900024
-51,05896
-54,483032
-54,0802
-49,246216
-49,44763
-35,85205
-19,839478
-10,070801
4,1290283
6,2438965
21,652222
37,46338
45,217896
53,17383
57,70569
52,972412
58,309937
52,871704
44,815063
42,095947
42,095947
42,700195
37,564087
31,219482
26,687622
23,062134
12,588501
18,22815
3,3233643
-2,6184082
-10,977173
-24,572754
-35,751343
-42,095947
-45,822144
-49,749756
-55,69153
-52,871704
-54,382324
-61,532593
-53,979492
-56,295776
-58,914185
-55,69153
-52,972412
-37,261963
-24,874878
-26,486206
-10,473633
11,077881
26,28479
31,32019
50,253296
46,92993
48,94409
50,354004
51,05896
50,454712
43,40515
41,592407
43,90869
39,074707
33,9386
27,191162
16,616821
14,602661
3,7261963
1,7120361
-1,9134521
-2,6184082
-9,970093
-12,789917
-22,860718
-28,500366
-37,86621
-44,311523
-47,43347
-50,857544
-54,281616
-57,000732
-53,778076
-51,5625
-44,210815
-50,253296
-36,557007
-33,33435
-13,394165
-4,5318604
1,8127441
9,667969
18,73169
27,593994
29,406738
40,081787
40,585327
36,657715
54,0802
48,94409
45,822144
44,613647
38,974
36,95984
33,233643
31,622314
27,493286
17,019653
1,1077881
13,192749
5,3375244
3,8269043
-10,272217
-24,472046
-32,528687
-38,974
-46,224976
-44,110107
-46,627808
-47,232056
-34,140015
-43,00232
-44,210815
-45,117188
-48,339844
-44,815063
-35,247803
-33,33435
-20,141602
-1,7120361
1,4099121
15,609741
28,29895
38,067627
41,99524
50,253296
55,08728
56,09436
58,813477
59,71985
55,59082
48,03772
42,599487
35,650635
34,44214
34,039307
22,558594
16,21399
-2,2155762
5,7403564
7,1502686
6,2438965
-3,8269043
-22,558594
-30,917358
-36,154175
-41,290283
-42,49878
-47,735596
-47,93701
-50,756836
-52,166748
-50,656128
-43,103027
-44,41223
-33,132935
-35,751343
-23,666382
-19,436646
-4,1290283
2,3162842
8,358765
14,501953
29,406738
43,203735
54,483032
55,288696
58,007812
50,05188
44,714355
45,117188
45,41931
40,98816
38,974
34,44214
23,867798
20,24231
10,977173
8,761597
8,358765
1,1077881
-3,5247803
-13,897705
-26,78833
-33,535767
-42,095947
-46,829224
-51,159668
-57,302856
-56,09436
-64,05029
-54,885864
-55,69153
-52,06604
-55,69153
-55,69153
-47,43347
-35,34851
-20,443726
-15,911865
-1,5106201
9,164429
19,839478
31,32019
37,664795
41,088867
35,751343
42,90161
48,44055
47,332764
43,00232
39,98108
37,564087
31,521606
24,874878
20,040894
7,7545166
4,1290283
0,20141602
-2,3162842
-3,5247803
-8,660889
-13,595581
-26,28479
-26,486206
-37,261963
-50,656128
-49,749756
-46,5271
-53,475952
-55,288696
-62,539673
-58,511353
-55,08728
-55,892944
-55,69153
-48,742676
-33,43506
-24,472046
-9,768677
-0,20141602
5,1361084
15,911865
24,975586
38,36975
37,46338
39,37683
61,73401
50,958252
47,53418
50,354004
40,786743
38,772583
31,924438
27,191162
24,77417
18,22815
15,206909
1,6113281
0,70495605
-3,9276123
-10,272217
-18,832397
-29,910278
-32,32727
-43,00232
-47,735596
-49,0448
-51,361084
-54,382324
-52,468872
-47,03064
-44,613647
-45,117188
-43,203735
-44,815063
-43,90869
-27,694702
-22,457886
-11,279297
4,1290283
14,099121
24,673462
27,493286
38,87329
44,210815
47,131348
52,56958
49,145508
49,44763
40,38391
41,189575
36,657715
32,528687
24,874878
30,111694
17,422485
7,5531006
2,5177002
5,0354004
2,5177002
-8,358765
-10,977173
-20,24231
-30,111694
-34,643555
-49,749756
-44,714355
-47,735596
-44,91577
-47,03064
-50,454712
-47,836304
-44,91577
-41,088867
-42,39807
-43,807983
-28,903198
-17,22107
-6,2438965
9,365845
11,077881
21,047974
23,666382
40,283203
41,793823
50,55542
51,159668
55,993652
48,54126
46,92993
43,40515
45,217896
40,081787
29,910278
25,881958
23,76709
18,530273
11,782837
9,164429
-3,4240723
-5,5389404
-16,918945
-30,514526
-30,615234
-44,91577
-51,05896
-50,354004
-56,900024
-60,12268
-57,000732
-69,08569
-59,21631
-58,20923
-49,95117
-49,0448
-39,678955
-30,31311
-5,7403564
3,0212402
12,185669
19,73877
24,169922
33,535767
43,304443
59,518433
47,836304
64,956665
56,09436
58,10852
53,57666
49,749756
40,283203
35,147095
27,191162
30,31311
20,24231
13,998413
8,258057
3,7261963
-0,60424805
-9,164429
-18,73169
-27,090454
-38,571167
-47,03064
-58,914185
-57,302856
-56,799316
-55,490112
-48,239136
-52,770996
-51,864624
-52,670288
-54,281616
-49,850464
-48,239136
-29,507446
-16,71753
-14,602661
4,1290283
6,9488525
20,141602
25,177002
10,574341
-8,761597
-8,963013
-13,796997
-12,286377
-11,581421
-10,574341
-24,472046
-15,106201
-17,019653
-6,3446045
19,033813
56,497192
88,32092
104,837036
119,540405
102,62146
56,5979
4,1290283
-39,578247
-38,168335
-30,917358
-23,76709
-26,687622
-33,535767
-37,46338
-31,924438
-35,44922
-35,751343
-40,182495
-35,751343
-35,95276
-29,205322
-20,544434
-8,157349
0,9063721
-0,9063721
5,4382324
25,177002
34,34143
41,088867
51,965332
49,246216
55,792236
55,490112
58,20923
52,06604
44,815063
41,4917
37,261963
31,622314
29,30603
17,422485
7,5531006
2,9205322
6,1431885
-0,20141602
-8,862305
-8,963013
-21,450806
-27,694702
-34,44214
-41,793823
-53,17383
-54,382324
-54,68445
-60,12268
-58,914185
-54,382324
-55,288696
-55,18799
-51,763916
-50,857544
-35,44922
-18,328857
-10,876465
1,7120361
19,638062
22,659302
38,269043
37,765503
44,110107
46,224976
47,232056
46,5271
53,57666
49,95117
47,735596
43,203735
38,36975
27,493286
21,652222
12,487793
7,5531006
-0,70495605
8,358765
-10,372925
-16,918945
-20,24231
-33,33435
-38,47046
-46,5271
-46,92993
-51,663208
-58,309937
-55,892944
-58,007812
-60,72693
-62,338257
-62,942505
-53,375244
-47,836304
-45,41931
-31,32019
-19,23523
-9,365845
-1,2084961
4,2297363
6,4453125
21,551514
23,062134
34,84497
37,46338
42,90161
41,290283
49,0448
45,01648
40,38391
33,132935
26,78833
22,76001
18,429565
2,3162842
-6,6467285
-11,581421
-2,1148682
-18,933105
-24,472046
-28,903198
-40,786743
-40,98816
-49,95117
-52,06604
-57,70569
-62,338257
-57,10144
-58,813477
-50,857544
-48,94409
-48,641968
-43,606567
-42,095947
-44,210815
-29,406738
-14,602661
-5,9417725
2,5177002
10,070801
21,954346
34,140015
43,606567
50,253296
55,18799
58,007812
57,70569
50,857544
47,232056
53,67737
42,196655
35,247803
38,671875
46,124268
17,019653
11,984253
7,3516846
10,574341
9,466553
4,3304443
3,9276123
-26,28479
-33,132935
-36,154175
-42,095947
-46,5271
-46,92993
-51,260376
-49,54834
-51,763916
-45,117188
-45,92285
-40,283203
-42,800903
-24,169922
-19,839478
-10,977173
-4,0283203
0,70495605
10,171509
18,22815
33,9386
39,37683
48,742676
52,972412
57,302856
60,12268
56,19507
51,159668
44,41223
32,730103
35,44922
39,37683
29,406738
20,74585
14,099121
8,660889
12,991333
4,9346924
5,5389404
-5,3375244
-17,422485
-18,026733
-34,039307
-40,98816
-42,39807
-51,159668
-50,55542
-49,44763
-52,468872
-48,239136
-42,196655
-41,189575
-38,36975
-31,622314
-24,874878
-7,7545166
-5,7403564
7,2509766
16,21399
28,601074
32,93152
38,36975
43,103027
51,5625
49,0448
54,58374
54,0802
46,829224
43,807983
44,0094
28,29895
30,212402
26,28479
10,977173
8,761597
-1,0070801
-4,4311523
-1,8127441
-7,3516846
-21,24939
-35,34851
-44,0094
-55,490112
-53,57666
-46,829224
-48,239136
-53,375244
-57,60498
-61,6333
-58,914185
-50,05188
-50,152588
-46,42639
-41,793823
-30,31311
-8,963013
0,10070801
2,3162842
11,984253
21,047974
25,680542
47,332764
48,239136
51,864624
54,785156
48,54126
51,260376
43,707275
37,36267
27,996826
30,111694
23,565674
24,673462
10,977173
5,9417725
-2,6184082
7,3516846
-1,5106201
-11,178589
-19,839478
-19,839478
-28,097534
-32,125854
-41,592407
-41,189575
-39,88037
-43,304443
-46,224976
-48,339844
-44,815063
-52,670288
-43,50586
-48,138428
-38,974
-26,78833
-19,335938
-9,970093
8,157349
14,501953
20,443726
34,542847
36,254883
42,800903
45,620728
53,17383
52,368164
52,368164
49,44763
53,17383
49,0448
45,318604
39,779663
31,118774
12,286377
11,480713
9,970093
6,4453125
2,5177002
5,1361084
-9,970093
-17,422485
-32,32727
-46,92993
-43,304443
-47,232056
-47,836304
-53,274536
-52,670288
-54,382324
-65,3595
-52,06604
-46,627808
-50,958252
-36,254883
-29,910278
-15,106201
-8,358765
-0,9063721
10,372925
24,77417
44,210815
52,468872
52,670288
47,03064
51,461792
55,490112
57,10144
42,599487
46,42639
41,189575
33,535767
30,31311
24,874878
19,335938
12,890625
7,0495605
11,077881
2,1148682
-11,984253
-22,357178
-34,643555
-35,34851
-45,822144
-50,152588
-57,907104
-52,267456
-50,354004
-49,0448
-54,0802
-59,820557
-53,17383
-50,756836
-48,843384
-40,182495
-24,673462
-22,659302
-8,258057
-9,667969
5,5389404
16,314697
30,81665
40,48462
41,592407
48,843384
45,41931
44,311523
41,592407
37,060547
34,94568
30,81665
29,910278
19,73877
11,279297
17,120361
9,768677
5,0354004
5,4382324
0,70495605
-9,164429
-20,645142
-31,32019
-41,592407
-48,742676
-50,454712
-49,44763
-51,864624
-51,5625
-50,253296
-52,468872
-42,800903
-45,822144
-38,571167
-36,758423
-29,910278
-22,25647
-4,5318604
-3,5247803
6,9488525
16,21399
21,652222
33,233643
38,36975
41,592407
44,110107
52,267456
53,17383
54,986572
42,800903
43,606567
38,87329
37,060547
31,32019
33,132935
18,22815
13,595581
13,998413
10,171509
8,157349
-5,4382324
-16,818237
-28,500366
-39,88037
-39,47754
-49,850464
-55,69153
-55,08728
-52,267456
-53,475952
-52,166748
-51,663208
-45,52002
-51,260376
-46,627808
-39,37683
-25,479126
-10,574341
2,5177002
9,869385
19,839478
28,097534
30,81665
39,37683
43,807983
51,05896
51,05896
40,786743
43,50586
38,067627
42,39807
40,283203
32,93152
31,521606
20,443726
8,862305
5,3375244
5,9417725
-2,3162842
-13,796997
-22,055054
-20,443726
-26,385498
-39,074707
-44,311523
-51,663208
-57,000732
-54,986572
-52,670288
-52,972412
-57,403564
-50,55542
-54,483032
-55,490112
-55,08728
-47,836304
-37,96692
-18,530273
-12,991333
2,7191162
10,372925
23,062134
32,93152
38,87329
53,375244
57,10144
58,71277
60,72693
55,08728
57,10144
55,993652
51,361084
43,807983
33,9386
24,371338
13,595581
9,970093
2,7191162
0,10070801
-10,675049
-25,378418
-26,687622
-33,636475
-38,571167
-53,07312
-58,007812
-67,37366
-61,532593
-61,73401
-60,525513
-60,525513
-55,59082
-59,317017
-49,44763
-44,110107
-24,371338
-19,73877
-11,077881
1,2084961
12,185669
19,033813
30,81665
44,91577
48,03772
54,0802
68,38074
66,26587
72,71118
65,05737
59,21631
53,07312
47,634888
44,210815
43,90869
35,751343
20,74585
8,358765
6,0424805
3,2226562
-1,0070801
-5,6396484
-16,415405
-29,910278
-41,39099
-49,346924
-48,138428
-45,92285
-44,51294
-48,03772
-42,800903
-49,246216
-47,03064
-52,368164
-50,454712
-45,620728
-40,686035
-19,436646
5,8410645
5,6396484
8,157349
23,364258
33,032227
36,657715
42,297363
48,03772
44,815063
51,05896
49,0448
60,525513
53,878784
42,196655
39,37683
32,93152
28,399658
26,78833
19,537354
16,21399
5,5389404
2,3162842
-4,5318604
-6,6467285
-15,811157
-26,28479
-35,44922
-44,613647
-45,620728
-51,763916
-54,986572
-50,857544
-52,368164
-44,210815
-46,02356
-47,03064
-45,822144
-40,182495
-37,96692
-28,500366
-13,595581
-8,761597
4,8339844
13,192749
26,486206
33,9386
36,4563
44,0094
44,210815
49,246216
45,822144
45,52002
48,742676
38,671875
46,02356
38,47046
29,507446
20,645142
8,157349
8,963013
-0,50354004
-5,3375244
-10,876465
-13,394165
-23,867798
-34,542847
-38,974
-46,325684
-46,224976
-49,54834
-40,48462
-50,958252
-46,42639
-52,670288
-51,864624
-45,620728
-40,98816
-36,053467
-29,30603
-14,300537
1,3092041
2,3162842
11,480713
17,321777
29,708862
33,9386
38,974
44,815063
57,70569
55,69153
52,267456
48,843384
55,490112
48,54126
43,203735
33,132935
31,622314
30,514526
17,22107
10,473633
15,408325
4,1290283
-0,60424805
-5,1361084
-18,630981
-29,708862
-38,571167
-44,815063
-52,267456
-56,900024
-63,546753
-56,900024
-58,71277
-58,410645
-53,778076
-53,67737
-53,475952
-48,843384
-37,86621
-24,77417
-12,185669
0,50354004
17,422485
23,162842
34,140015
44,714355
44,51294
65,15808
55,69153
55,389404
55,389404
54,18091
53,475952
43,50586
40,786743
31,622314
30,111694
21,652222
16,21399
-2,4169922
0,50354004
-3,3233643
-9,567261
-16,818237
-19,537354
-25,78125
-36,95984
-44,714355
-39,175415
-45,217896
-46,627808
-54,68445
-57,907104
-57,10144
-51,864624
-48,339844
-45,318604
-48,742676
-36,85913
-24,77417
-18,026733
-12,084961
6,5460205
19,436646
34,84497
46,42639
44,815063
49,649048
50,253296
50,958252
50,05188
43,90869
43,707275
39,88037
37,664795
34,542847
27,090454
21,047974
17,825317
7,4523926
-1,5106201
2,7191162
-6,0424805
-11,380005
-20,24231
-35,751343
-36,053467
-44,0094
-54,0802
-54,281616
-51,159668
-51,864624
-53,375244
-49,246216
-49,649048
-50,454712
-59,1156
-58,20923
-46,627808
-32,730103
-21,148682
-7,1502686
3,3233643
8,963013
18,630981
28,29895
33,9386
44,815063
38,87329
35,95276
36,254883
38,772583
39,88037
31,723022
36,4563
32,226562
35,85205
41,693115
24,874878
15,206909
5,8410645
4,3304443
-2,7191162
-2,0141602
-24,27063
-34,94568
-46,124268
-47,735596
-45,01648
-51,361084
-46,5271
-51,361084
-45,822144
-52,166748
-57,10144
-50,958252
-50,454712
-45,41931
-46,02356
-32,629395
-15,811157
-10,574341
-8,560181
3,2226562
5,7403564
17,623901
27,79541
40,98816
35,34851
40,283203
47,232056
40,786743
34,542847
29,30603
28,29895
29,507446
26,385498
25,479126
20,645142
15,408325
12,286377
4,1290283
4,5318604
-7,1502686
-20,645142
-25,076294
-37,765503
-44,815063
-45,41931
-52,06604
-54,785156
-51,663208
-55,69153
-53,274536
-55,792236
-54,58374
-61,431885
-57,000732
-50,354004
-33,032227
-25,27771
-15,408325
0,80566406
10,876465
23,867798
37,765503
36,95984
41,89453
41,4917
48,03772
45,41931
40,786743
42,297363
35,95276
38,772583
26,385498
23,666382
10,775757
9,164429
2,6184082
0
3,3233643
-5,4382324
-12,286377
-26,889038
-24,874878
-35,751343
-46,02356
-51,5625
-53,67737
-56,69861
-60,22339
-54,483032
-50,857544
-52,468872
-55,59082
-54,68445
-39,779663
-37,96692
-24,975586
-11,883545
-2,9205322
4,2297363
9,265137
24,673462
43,90869
34,140015
42,49878
47,735596
51,763916
50,656128
47,232056
50,454712
36,154175
40,081787
38,47046
33,132935
22,357178
14,703369
13,394165
6,1431885
2,4169922
-0,10070801
-11,077881
-24,874878
-31,118774
-39,175415
-48,641968
-53,878784
-48,03772
-53,17383
-58,309937
-52,468872
-52,56958
-53,07312
-51,763916
-44,815063
-43,90869
-31,521606
-19,839478
-10,977173
-2,1148682
13,494873
28,29895
31,018066
33,33435
45,822144
46,224976
44,110107
54,281616
55,08728
50,55542
43,40515
38,067627
30,917358
24,472046
18,026733
20,947266
17,825317
16,918945
8,358765
6,2438965
0,80566406
-2,1148682
-14,703369
-24,975586
-33,43506
-37,261963
-38,974
-47,03064
-47,131348
-41,39099
-45,318604
-46,829224
-43,606567
-45,117188
-40,182495
-43,50586
-37,564087
-23,364258
-10,775757
-0,10070801
11,480713
23,666382
27,694702
44,311523
43,304443
52,166748
51,5625
51,260376
53,67737
51,5625
44,110107
40,98816
38,571167
33,233643
24,169922
23,162842
20,544434
3,0212402
3,2226562
-1,2084961
-5,2368164
-7,0495605
-23,464966
-28,601074
-34,94568
-42,297363
-41,592407
-49,246216
-54,885864
-52,267456
-50,656128
-51,260376
-52,468872
-52,267456
-51,663208
-48,54126
-34,94568
-30,31311
-17,120361
-2,7191162
6,0424805
18,73169
24,27063
33,132935
40,38391
44,815063
46,42639
41,592407
52,871704
38,772583
40,283203
42,196655
31,924438
25,78125
16,21399
14,602661
5,7403564
-8,056641
-8,358765
-3,7261963
-12,890625
-20,141602
-28,29895
-36,557007
-38,36975
-52,871704
-57,10144
-58,410645
-62,64038
-59,014893
-54,986572
-55,59082
-45,620728
-42,196655
-42,599487
-42,49878
-42,39807
-20,846558
-10,977173
-1,9134521
2,9205322
12,588501
17,72461
34,94568
31,420898
42,49878
52,56958
53,274536
54,281616
55,69153
52,871704
52,56958
50,756836
41,088867
21,450806
14,804077
6,7474365
0,10070801
-1,2084961
-0,60424805
-13,494873
-24,169922
-27,29187
-36,35559
-42,700195
-46,02356
-44,613647
-47,232056
-36,95984
-42,599487
-36,35559
-33,636475
-37,46338
-36,4563
-44,311523
-39,074707
-34,643555
-15,005493
-3,9276123
8,258057
21,24939
9,869385
3,9276123
4,3304443
3,3233643
12,991333
19,839478
27,392578
46,728516
47,43347
54,382324
62,13684
67,17224
70,999146
67,07153
60,72693
44,613647
28,097534
24,069214
7,6538086
4,6325684
-9,667969
-16,616821
-34,744263
-42,39807
-50,857544
-48,742676
-42,90161
-45,620728
-46,02356
-3,8269043
123,36731
146,73157
112,18872
144,21387
241,19568
305,5481
315,11536
287,31995
208,7677
130,01404
65,25879
30,81665
-6,3446045
-48,641968
-54,18091
-51,361084
-71,7041
-98,19031
-113,39722
-132,0282
-163,85193
-192,65442
-210,58044
-231,82983
-262,14294
-292,8589
-273,92578
-215,0116
-146,53015
-83,58765
-43,103027
-96,17615
-187,61902
-266,97693
-296,48438
-307,46155
-355,19714
-394,47327
-413,40637
-388,93433
-348,349
-291,9525
-222,16187
-118,83545
75,93384
390,64636
723,0835
942,72766
1123,1964
1127,124
1027,121
914,5294
790,155
609,787
408,37097
218,53638
31,118774
-100,20447
-178,5553
-205,74646
-187,61902
-221,45691
-296,18225
-364,8651
-445,83435
-514,3158
-485,3119
-311,48987
-96,57898
77,84729
227,39868
353,68652
415,21912
423,88
460,53772
429,9225
336,16333
222,46399
152,06909
74,82605
9,768677
-46,728516
-63,24463
-86,91101
-107,05261
-140,68909
-166,26892
-220,44983
-273,42224
-329,5166
-378,05786
-453,38745
-508,97827
-533,1482
-520,15686
-476,04675
-405,14832
-323,77625
-205,84717
-45,318604
36,657715
33,132935
54,382324
70,3949
55,490112
36,4563
-22,558594
-81,06995
-109,973145
-109,26819
-73,013306
2,5177002
130,21545
335,9619
584,8114
722,47925
672,42737
550,06714
412,6007
283,69446
133,94165
-32,125854
-205,24292
-305,6488
-329,21448
-261,94153
-141,69617
-12,991333
73,11401
154,58679
204,53796
188,22327
139,98413
56,497192
-50,55542
-121,15173
-204,13513
-322,16492
-445,53223
-516,7328
-550,5707
-563,4613
-549,3622
-481,38428
-388,22937
-275,03357
-158,21228
-62,13684
46,325684
115,41138
132,83386
129,10767
121,85669
136,66077
150,55847
147,53723
137,36572
130,8197
124,575806
110,87952
135,15015
179,36096
204,33655
218,33496
230,01709
241,4978
245,82825
238,27515
213,7024
174,52698
149,95422
132,63245
119,84253
98,49243
95,269775
78,95508
62,64038
49,749756
21,450806
-7,4523926
-26,28479
-54,483032
-71,7041
-70,59631
-76,135254
-75,631714
-58,61206
-30,111694
-4,1290283
8,761597
13,998413
13,293457
17,926025
31,521606
50,152588
104,13208
145,9259
137,96997
160,42786
211,99036
223,7732
179,36096
126,18713
57,10144
-7,3516846
-54,986572
-90,5365
-106,64978
-108,56323
-95,5719
-61,532593
-27,996826
-3,9276123
17,422485
48,44055
56,69861
57,20215
64,453125
74,42322
94,06128
101,815796
84,695435
53,17383
23,968506
16,21399
6,8481445
-0,9063721
-0,40283203
8,358765
12,890625
-6,7474365
-10,372925
-11,380005
-12,588501
-10,876465
-1,5106201
15,206909
36,557007
63,14392
374,33167
1106,2775
1685,2478
1748,3917
1769,2383
1677,4933
1326,5259
962,265
686,12366
530,8319
449,057
388,4308
260,4309
190,64026
186,51123
234,95178
281,98242
259,1217
152,77405
-15,408325
-248,84949
-523,78235
-752,89307
-1017,85583
-1325,6195
-1582,1228
-1768,5333
-1905,4962
-1905,6976
-1778,4027
-1575,174
-1331,9641
-1077,475
-867,9016
-729,83093
-548,85864
-399,50867
-272,9187
-163,95264
-72,40906
27,593994
407,76672
1044,9463
1303,6652
1212,8265
1018,4601
815,9363
636,676
450,2655
297,995
285,80933
485,71472
569,7052
541,50696
383,6975
215,71655
103,125
-44,51294
-206,75354
-412,80212
-604,5502
-737,48474
-829,53186
-868,20374
-881,09436
-890,1581
-835,3729
-744,93713
-621,0663
-506,25916
-434,35364
-351,16882
-281,17676
-257,00684
-240,1886
-201,91956
-163,65051
-74,42322
209,37195
621,67053
796,90247
957,2296
1252,3041
1259,1522
1006,3751
688,1378
425,39062
206,75354
80,163574
10,775757
-30,31311
-45,721436
-45,117188
-59,921265
-17,623901
-7,9559326
-82,88269
-213,60168
-412,19788
-682,6996
-936,5845
-1089,9628
-1091,1713
-997,11
-878,67737
-772,93396
-663,16223
-511,49597
-335,45837
-138,57422
63,24463
163,75122
185,80627
178,95813
173,72131
174,62769
162,34131
136,66077
112,28943
100,70801
100,305176
78,25012
66,56799
55,892944
50,656128
66,36658
76,638794
92,04712
91,744995
100,909424
103,02429
114,70642
124,17297
130,719
142,60254
149,24927
149,34998
143,00537
139,27917
131,42395
123,87085
111,38306
106,448364
94,86694
88,0188
75,027466
73,21472
60,72693
51,763916
34,744263
38,974
15,408325
4,7332764
-4,7332764
-20,74585
-23,062134
-26,687622
-30,715942
-42,196655
-47,836304
-40,98816
-42,39807
-44,210815
-44,0094
-46,02356
-40,48462
-33,535767
-16,818237
-10,977173
-2,3162842
11,279297
15,710449
20,645142
31,622314
39,98108
45,822144
41,088867
40,686035
42,095947
32,32727
32,226562
23,565674
17,523193
9,768677
0,30212402
-0,40283203
-25,579834
-28,601074
-28,198242
-30,917358
-37,36267
-45,721436
-44,613647
-43,707275
-55,288696
-50,454712
-45,01648
-34,744263
-32,025146
-22,860718
-28,198242
-33,636475
-29,608154
-33,33435
-41,693115
-42,90161
-26,889038
-13,796997
1,5106201
10,775757
21,450806
39,175415
42,700195
48,44055
48,138428
47,232056
47,03064
47,53418
39,175415
44,210815
35,44922
27,090454
17,72461
15,206909
4,6325684
-1,0070801
-8,660889
-19,033813
-24,673462
-27,694702
-36,053467
-45,822144
-51,663208
-66,26587
-73,31543
-70,69702
-79,559326
-79,2572
-83,48694
-87,716675
-85,198975
-79,96216
-77,545166
-71,90552
-76,135254
-71,60339
-67,07153
-46,42639
-33,233643
-16,818237
-8,761597
0,50354004
7,6538086
9,970093
21,75293
24,069214
21,24939
17,422485
19,839478
8,761597
6,5460205
5,5389404
2,5177002
-4,1290283
-14,804077
-18,22815
-29,910278
-35,34851
-40,585327
-44,41223
-53,17383
-58,71277
-69,1864
-82,47986
-83,08411
-98,89526
-103,326416
-108,76465
-118,029785
-119,540405
-119,74182
-120,44678
-115,81421
-117,82837
-112,490845
-102,52075
-91,54358
-74,523926
-58,007812
-37,765503
-20,343018
-5,6396484
2,5177002
8,761597
12,991333
15,408325
10,171509
13,595581
5,0354004
4,5318604
9,164429
7,7545166
0,50354004
-12,991333
-15,106201
-20,24231
-27,694702
-31,924438
-37,36267
-49,0448
-46,224976
-53,878784
-71,09985
-74,020386
-85,198975
-81,27136
-76,638794
-91,241455
-91,54358
-94,46411
-88,82446
-90,13367
-79,559326
-82,07703
-78,25012
-75,128174
-60,22339
-39,88037
-29,608154
-21,853638
-9,265137
0
8,560181
23,666382
30,31311
31,723022
35,650635
35,44922
40,585327
32,83081
26,78833
22,25647
25,378418
11,077881
7,5531006
3,2226562
-6,8481445
-19,033813
-25,378418
-29,608154
-28,198242
-38,671875
-55,792236
-58,309937
-58,71277
-65,05737
-61,029053
-65,963745
-63,74817
-63,546753
-71,30127
-69,58923
-71,30127
-77,24304
-65,86304
-66,06445
-48,03772
-28,097534
-18,832397
-5,9417725
-5,7403564
2,7191162
15,005493
32,528687
44,311523
58,309937
61,935425
58,914185
60,12268
47,131348
47,03064
48,94409
48,03772
35,85205
24,27063
24,874878
7,7545166
1,8127441
0,9063721
3,9276123
-15,005493
-24,069214
-34,744263
-45,01648
-52,468872
-54,58374
-66,970825
-71,20056
-74,72534
-79,45862
-75,83313
-83,58765
-80,26428
-72,509766
-75,531006
-67,57507
-64,65454
-61,935425
-51,05896
-38,47046
-26,78833
-12,588501
2,9205322
15,811157
18,429565
19,839478
17,120361
11,380005
9,466553
-1,7120361
-0,30212402
1,1077881
-2,2155762
5,3375244
0,70495605
-0,10070801
-2,9205322
-6,7474365
1,5106201
0,40283203
-4,1290283
-13,494873
-31,723022
-46,325684
-58,10852
-79,055786
-79,2572
-83,688354
-75,631714
-74,42322
-74,020386
-74,12109
-73,81897
-73,41614
-74,020386
-71,09985
-64,65454
-49,246216
-40,48462
-26,184082
-21,24939
-9,164429
3,5247803
16,21399
31,521606
38,168335
46,5271
42,800903
50,55542
47,634888
50,152588
45,721436
34,744263
32,226562
26,486206
15,609741
11,782837
-2,6184082
-4,5318604
-19,134521
-20,74585
-35,046387
-33,233643
-39,98108
-49,44763
-52,06604
-60,72693
-57,10144
-58,71277
-63,949585
-58,71277
-53,57666
-46,325684
-58,813477
-56,396484
-52,166748
-31,118774
-20,040894
-8,761597
-5,7403564
10,070801
10,574341
23,364258
34,542847
38,571167
50,253296
45,822144
51,663208
49,0448
44,311523
41,693115
34,94568
31,723022
28,701782
22,357178
6,2438965
15,811157
-0,70495605
-4,7332764
-10,775757
-13,394165
-31,018066
-33,33435
-45,92285
-37,86621
-52,770996
-53,07312
-58,511353
-65,3595
-63,345337
-61,431885
-60,525513
-64,151
-60,424805
-58,61206
-55,792236
-44,0094
-30,111694
-17,019653
-2,1148682
-0,30212402
22,860718
31,82373
31,420898
32,83081
39,98108
48,44055
57,806396
50,152588
51,159668
51,663208
42,599487
41,189575
32,32727
24,069214
27,392578
19,537354
15,005493
17,422485
12,588501
3,7261963
-6,4453125
-14,300537
-21,047974
-32,93152
-37,261963
-39,578247
-41,39099
-44,41223
-38,671875
-41,89453
-35,247803
-35,751343
-31,118774
-26,989746
-25,27771
-16,918945
-2,7191162
6,7474365
23,565674
29,708862
37,261963
49,0448
54,785156
66,6687
70,69702
66,56799
87,01172
77,84729
77,74658
70,495605
71,80481
59,61914
52,267456
43,50586
37,261963
42,90161
27,996826
29,507446
19,73877
11,178589
-3,8269043
-7,7545166
-12,588501
-27,191162
-22,860718
-28,500366
-38,168335
-35,549927
-36,95984
-36,657715
-35,147095
-39,578247
-37,564087
-44,613647
-43,707275
-25,479126
-3,2226562
12,185669
26,184082
34,94568
42,599487
54,0802
68,58215
68,28003
83,88977
91,54358
98,49243
94,766235
88,0188
83,48694
82,27844
78,552246
74,2218
72,71118
79,156494
54,382324
41,99524
34,34143
28,198242
25,881958
8,761597
1,7120361
-5,3375244
-25,479126
-25,78125
-30,413818
-30,111694
-39,578247
-35,95276
-44,0094
-46,124268
-42,599487
-41,592407
-38,974
-33,737183
-18,328857
-1,0070801
6,5460205
27,392578
39,175415
50,756836
65,15808
67,37366
70,19348
77,24304
77,44446
76,638794
76,43738
65,76233
65,460205
62,13684
59,014893
52,368164
47,43347
41,99524
38,671875
28,198242
22,659302
11,077881
9,667969
-0,9063721
-11,581421
-12,185669
-21,24939
-25,680542
-27,29187
-34,84497
-33,737183
-31,118774
-31,219482
-34,94568
-30,715942
-31,32019
-26,687622
-19,940186
-1,9134521
10,775757
32,42798
27,090454
29,910278
43,807983
47,53418
53,475952
63,74817
61,23047
62,338257
70,495605
68,984985
74,2218
61,935425
53,878784
51,461792
45,822144
43,606567
31,118774
23,867798
16,415405
27,694702
23,062134
15,811157
-0,50354004
-10,775757
-19,73877
-27,090454
-32,025146
-37,46338
-41,39099
-50,253296
-36,557007
-45,822144
-44,210815
-36,85913
-38,974
-36,758423
-42,39807
-24,472046
-11,279297
0,60424805
13,092041
24,169922
31,521606
46,02356
43,807983
50,152588
58,61206
52,972412
58,007812
52,972412
48,843384
45,822144
44,613647
37,765503
52,267456
35,650635
26,28479
17,926025
16,415405
9,667969
2,5177002
1,6113281
-2,2155762
-15,509033
-23,26355
-33,83789
-42,800903
-42,700195
-50,656128
-44,210815
-41,189575
-46,02356
-42,90161
-40,182495
-49,649048
-42,90161
-28,500366
-16,516113
-4,3304443
2,1148682
22,860718
28,29895
40,88745
52,770996
55,288696
62,23755
60,62622
61,73401
65,15808
62,036133
55,892944
53,57666
52,267456
42,297363
35,85205
36,154175
21,75293
16,314697
9,970093
8,157349
0
9,970093
9,365845
5,5389404
4,1290283
-11,782837
-26,486206
-27,191162
-22,659302
-19,436646
-16,113281
-9,970093
-3,0212402
1,0070801
24,169922
9,667969
15,106201
25,27771
33,636475
28,097534
37,86621
46,42639
44,51294
59,921265
70,59631
86,206055
83,99048
85,60181
85,90393
87,11243
73,61755
72,20764
72,006226
80,06287
55,18799
47,634888
39,779663
29,708862
21,551514
17,825317
15,005493
15,408325
5,5389404
2,1148682
-16,616821
-24,472046
-22,457886
-28,29895
-22,155762
-36,154175
-36,557007
-35,85205
-47,232056
-33,737183
-39,074707
-37,765503
-32,730103
-16,818237
-18,22815
-7,5531006
2,1148682
10,171509
14,804077
19,537354
27,090454
36,4563
40,88745
48,03772
52,468872
46,92993
54,18091
52,770996
44,815063
31,018066
27,493286
23,26355
20,645142
18,832397
14,501953
9,265137
0,40283203
-3,5247803
-13,998413
-14,300537
-21,350098
-20,947266
-32,528687
-35,34851
-37,564087
-40,182495
-45,822144
-43,103027
-39,98108
-45,01648
-48,239136
-45,318604
-44,714355
-34,44214
-6,6467285
-3,9276123
6,9488525
13,595581
22,25647
29,80957
37,86621
42,800903
53,475952
38,36975
51,361084
51,763916
52,56958
41,793823
40,38391
36,254883
34,240723
29,30603
16,616821
14,199829
2,3162842
3,6254883
-0,9063721
-8,963013
-15,106201
-37,86621
-39,175415
-39,175415
-42,39807
-39,37683
-46,224976
-43,90869
-48,94409
-41,4917
-48,742676
-42,700195
-46,627808
-43,50586
-34,94568
-24,472046
-15,408325
0,9063721
8,258057
17,22107
24,673462
44,51294
50,857544
51,05896
48,03772
63,345337
64,956665
64,25171
66,16516
57,504272
52,56958
41,592407
32,42798
30,81665
24,673462
25,479126
13,394165
9,768677
4,5318604
-1,4099121
-1,2084961
-16,71753
-24,572754
-38,168335
-33,9386
-35,34851
-42,196655
-49,246216
-55,69153
-60,22339
-50,857544
-52,670288
-50,354004
-37,564087
-37,261963
-26,586914
-12,890625
-5,5389404
4,9346924
22,155762
31,420898
36,4563
44,110107
58,007812
49,850464
47,53418
50,454712
57,403564
44,210815
40,585327
47,93701
36,657715
34,643555
25,177002
31,32019
16,616821
9,667969
13,897705
10,473633
-2,5177002
-11,581421
-25,076294
-30,917358
-41,088867
-42,800903
-47,03064
-53,475952
-51,260376
-47,03064
-47,836304
-48,843384
-35,85205
-48,44055
-46,627808
-39,98108
-30,31311
-16,314697
-8,963013
3,7261963
11,883545
20,645142
35,549927
43,50586
63,949585
68,78357
66,06445
64,956665
60,928345
62,64038
55,892944
53,778076
54,483032
46,92993
38,47046
30,111694
29,104614
14,703369
10,977173
6,5460205
8,963013
-2,7191162
-13,796997
-22,457886
-29,507446
-34,140015
-41,290283
-49,850464
-45,318604
-48,03772
-39,37683
-48,54126
-43,00232
-47,03064
-39,88037
-36,95984
-30,010986
-17,926025
-0,80566406
7,1502686
17,120361
26,083374
38,47046
39,37683
40,38391
44,41223
49,0448
52,06604
47,53418
45,822144
40,38391
43,203735
40,88745
36,4563
25,982666
9,063721
0,30212402
-3,1219482
2,1148682
-4,3304443
-7,6538086
-9,970093
-15,509033
-12,689209
-17,019653
-14,099121
-22,558594
-17,019653
-19,436646
-20,74585
-22,860718
-29,507446
-33,9386
-29,205322
-28,80249
-23,364258
-0,70495605
6,5460205
8,560181
24,874878
22,155762
32,025146
43,90869
48,843384
52,871704
53,57666
59,820557
72,20764
60,525513
59,1156
57,70569
54,885864
42,196655
33,132935
28,80249
20,141602
15,811157
17,120361
2,9205322
0,60424805
-6,4453125
-10,574341
-20,74585
-33,9386
-38,47046
-48,843384
-51,864624
-58,71277
-59,518433
-58,410645
-54,68445
-50,454712
-49,346924
-51,159668
-52,770996
-33,032227
-25,579834
-12,588501
-2,6184082
5,5389404
16,21399
27,090454
23,565674
40,081787
44,0094
57,60498
43,707275
47,836304
46,224976
49,95117
44,815063
40,38391
29,507446
23,565674
29,708862
10,070801
2,3162842
-2,5177002
-0,70495605
-7,5531006
-15,609741
-26,889038
-36,35559
-45,92285
-51,461792
-55,490112
-59,921265
-65,3595
-63,949585
-65,66162
-62,841797
-60,62622
-55,69153
-54,281616
-59,921265
-59,71985
-42,196655
-30,715942
-20,947266
-8,358765
2,4169922
10,775757
22,558594
21,75293
37,765503
42,599487
41,89453
45,822144
42,39807
36,154175
36,053467
33,132935
18,530273
15,206909
13,394165
4,6325684
5,8410645
-2,9205322
-7,3516846
-8,761597
-10,171509
-20,544434
-28,097534
-34,34143
-37,060547
-44,815063
-45,01648
-54,885864
-56,69861
-57,403564
-51,260376
-42,90161
-43,203735
-44,210815
-43,00232
-40,88745
-31,521606
-23,062134
-12,185669
4,9346924
11,984253
15,408325
33,535767
38,36975
52,06604
51,361084
58,20923
58,61206
53,274536
46,627808
51,864624
48,339844
44,210815
39,88037
33,132935
26,687622
14,501953
12,890625
13,998413
4,1290283
-2,9205322
-15,710449
-20,24231
-30,917358
-32,025146
-46,728516
-50,05188
-54,281616
-52,368164
-48,742676
-51,663208
-50,152588
-45,620728
-45,318604
-45,721436
-39,47754
-15,710449
-4,8339844
8,056641
19,839478
34,240723
43,707275
48,641968
48,641968
52,267456
65,66162
67,57507
63,74817
69,38782
61,431885
68,78357
56,497192
50,656128
51,461792
39,678955
27,996826
22,860718
12,185669
10,473633
5,7403564
-2,4169922
-16,516113
-30,111694
-38,87329
-52,871704
-51,05896
-55,08728
-49,54834
-54,382324
-55,288696
-56,69861
-51,05896
-54,0802
-53,07312
-47,93701
-52,972412
-30,111694
-20,040894
-13,394165
-3,2226562
8,157349
21,954346
29,406738
33,9386
29,910278
45,822144
43,40515
40,585327
42,599487
44,41223
40,98816
40,081787
27,191162
23,464966
18,026733
3,8269043
0,80566406
-2,8198242
-13,796997
-10,977173
-22,558594
-23,062134
-36,95984
-44,51294
-57,60498
-53,67737
-53,67737
-54,885864
-50,756836
-52,670288
-48,239136
-45,41931
-47,131348
-40,585327
-38,36975
-33,737183
-21,047974
-7,3516846
-1,8127441
7,4523926
18,630981
32,32727
42,700195
41,189575
49,54834
54,18091
56,900024
48,94409
46,325684
40,38391
29,507446
38,47046
35,046387
34,039307
17,22107
7,6538086
3,3233643
2,2155762
0,50354004
-9,567261
-10,272217
-17,321777
-24,673462
-41,189575
-43,40515
-45,92285
-50,152588
-48,742676
-57,60498
-51,663208
-50,454712
-56,09436
-52,468872
-51,260376
-50,756836
-41,89453
-33,032227
-21,652222
-15,609741
1,3092041
6,9488525
20,947266
26,28479
33,33435
37,96692
51,159668
48,339844
58,410645
55,18799
45,92285
51,260376
55,490112
40,182495
40,48462
32,730103
21,148682
13,796997
-0,9063721
5,1361084
-0,60424805
-9,667969
-17,120361
-27,79541
-36,657715
-42,39807
-38,974
-43,00232
-43,707275
-44,41223
-40,182495
-42,39807
-45,217896
-32,025146
-30,917358
-44,0094
-54,986572
-37,060547
-19,335938
-4,0283203
6,9488525
18,328857
24,472046
28,500366
39,074707
42,700195
54,986572
51,361084
52,871704
50,454712
44,210815
41,793823
36,85913
33,233643
28,500366
19,940186
8,560181
5,9417725
1,6113281
3,3233643
-5,9417725
-9,164429
-21,954346
-27,79541
-36,85913
-46,92993
-51,5625
-52,267456
-64,25171
-54,382324
-59,417725
-65,963745
-59,014893
-57,504272
-54,0802
-43,50586
-42,196655
-28,198242
-8,963013
-3,9276123
10,574341
18,026733
29,104614
35,95276
50,756836
58,914185
73,71826
66,06445
61,6333
60,021973
61,73401
51,159668
41,189575
35,549927
32,528687
36,35559
26,083374
18,933105
10,171509
4,9346924
3,5247803
-3,7261963
-11,178589
-24,673462
-30,514526
-35,85205
-43,50586
-44,613647
-41,088867
-52,267456
-52,972412
-49,0448
-51,5625
-52,670288
-53,07312
-44,815063
-39,578247
-24,069214
-17,623901
-6,1431885
-2,5177002
11,782837
24,371338
30,111694
39,37683
48,641968
51,965332
50,05188
58,71277
56,900024
50,958252
42,90161
37,765503
37,564087
30,615234
22,659302
22,357178
29,507446
9,365845
11,883545
3,9276123
-5,6396484
-17,019653
-28,601074
-32,125854
-40,585327
-50,05188
-55,69153
-57,20215
-51,05896
-52,468872
-50,454712
-48,54126
-43,90869
-45,620728
-41,592407
-36,053467
-19,638062
-10,171509
8,056641
5,4382324
15,106201
25,579834
34,542847
35,147095
44,91577
53,979492
49,44763
35,147095
43,807983
44,210815
34,039307
36,4563
37,261963
31,521606
25,27771
17,22107
1,3092041
0,60424805
-6,1431885
-17,019653
-18,630981
-21,047974
-22,961426
-22,76001
-28,399658
-34,140015
-33,737183
-46,829224
-43,707275
-47,332764
-50,857544
-50,857544
-49,95117
-61,935425
-51,260376
-42,90161
-31,118774
-16,918945
-7,5531006
-0,10070801
13,998413
18,127441
31,118774
39,37683
47,43347
49,850464
46,42639
48,54126
44,714355
41,592407
40,98816
36,154175
22,659302
18,22815
11,984253
10,070801
12,387085
3,0212402
-0,20141602
-8,560181
-11,984253
-28,500366
-26,889038
-37,96692
-46,224976
-50,958252
-50,152588
-66,6687
-63,949585
-55,59082
-52,166748
-51,159668
-50,958252
-52,468872
-48,641968
-39,779663
-25,881958
-17,019653
0
11,581421
18,22815
26,486206
32,93152
42,90161
43,807983
47,735596
43,00232
46,92993
45,117188
48,339844
39,276123
27,79541
30,81665
30,111694
26,28479
18,026733
5,3375244
-0,50354004
1,4099121
-4,7332764
-13,192749
-21,853638
-22,357178
-37,765503
-41,189575
-51,461792
-49,346924
-46,5271
-47,735596
-50,857544
-49,54834
-57,10144
-48,641968
-55,08728
-52,972412
-40,38391
-30,715942
-10,473633
-9,265137
8,056641
13,595581
27,493286
33,33435
42,599487
49,54834
57,10144
47,332764
48,742676
44,613647
48,03772
40,98816
41,290283
37,46338
36,35559
26,889038
17,22107
10,775757
-5,7403564
5,8410645
-10,372925
-19,839478
-31,82373
-35,046387
-39,98108
-45,620728
-55,892944
-62,036133
-52,06604
-57,504272
-52,166748
-48,239136
-49,246216
-45,117188
-56,396484
-46,224976
-32,730103
-25,680542
-13,293457
-4,0283203
1,9134521
10,574341
17,926025
26,586914
30,81665
37,161255
38,067627
47,131348
48,843384
44,91577
44,714355
39,37683
36,758423
42,196655
