Samples
-361,84387
-359,8297
-363,65662
-365,9729
-371,91467
-371,41113
-370,40405
-367,88635
-569,7052
9,265137
9,768677
12,185669
12,286377
14,199829
-361,84387
-359,8297
-363,65662
-365,9729
-371,91467
-371,41113
-370,40405
-367,88635
-569,7052
-966,29333
-1220,6818
-1367,1112
-1424,6155
-1416,3574
-1281,2073
-1214,5386
-1149,884
-1076,0651
-1019,16504
-3146,6216
1836,3098
-953,4027
-893,58215
-831,3446
-791,0614
-735,16846
-700,02136
-666,1835
-547,1466
-508,37402
-474,33472
-450,2655
-425,79346
-3120,8403
1757,3547
-392,66052
-366,67786
-344,21997
-329,6173
-309,4757
-299,4049
-288,72986
-255,49622
-249,85657
-231,72913
-237,46948
-236,3617
-3146,6216
1738,0188
-231,12488
-231,12488
-224,47815
-230,72205
-213,90381
-210,58044
-208,7677
-203,32947
-205,74646
-203,93372
-200,50964
-202,62451
-204,03442
-189,43176
-176,54114
-170,09583
-166,67175
-167,88025
-160,02502
-154,18396
-154,78821
-146,73157
-138,47351
-144,91882
-138,47351
-142,40112
-141,89758
-144,21387
-145,9259
-144,51599
-146,53015
-153,78113
-163,14697
-163,24768
-164,15405
-153,3783
-159,7229
-164,55688
-174,32556
-184,39636
-180,56946
-182,2815
-188,6261
-195,67566
-197,79053
-194,36646
-200,71106
-201,71814
-200,20752
-196,2799
-198,7976
-199,50256
-203,83301
-192,25159
-185,00061
-182,3822
-176,64185
-176,44043
-171,0022
-158,71582
-153,57971
-150,05493
-141,59546
-133,13599
-131,52466
-137,86926
-137,26501
-139,37988
-140,8905
-143,71033
-140,48767
-151,36414
-150,9613
-153,57971
-163,04626
-165,46326
-168,28308
-163,34839
-172,61353
-176,33972
-181,57654
-193,56079
-190,64026
-197,68982
-198,89832
-203,63159
-201,01318
-198,6969
-199,09973
-198,19336
-200,30823
-195,27283
-197,79053
-190,84167
-176,1383
-174,92981
-172,91565
-170,29724
-171,1029
-157,40662
-153,98254
-145,9259
-145,62378
-143,50891
-143,3075
-139,37988
-139,27917
-144,91882
-149,14856
-157,60803
-153,68042
-157,60803
-162,2406
-163,34839
-171,40503
-162,94556
-168,08167
-169,89441
-172,41211
-182,98645
-183,99353
-189,02893
-190,03601
-191,2445
-191,2445
-200,30823
-194,87
-198,49548
-199,40186
-197,4884
-198,6969
-198,39478
-197,28699
-191,54663
-179,15955
-170,49866
-164,6576
-159,42078
-158,91724
-146,12732
-146,53015
-150,75989
-144,11316
-142,30042
-142,80396
-130,8197
-134,24377
-137,26501
-133,3374
-138,87634
-137,86926
-141,69617
-141,79688
-147,53723
-149,6521
-142,099
-141,19263
-143,10608
-147,73865
-154,98962
-164,85901
-168,5852
-179,96521
-168,98804
-167,77954
-173,92273
-174,92981
-176,1383
-176,1383
-184,7992
-178,15247
-181,37512
-171,30432
-164,55688
-151,86768
-133,2367
-139,5813
-132,43103
-132,83386
-129,91333
-119,540405
-121,45386
-116,31775
-105,340576
-113,497925
-113,29651
-120,14465
-111,987305
-120,547485
-119,4397
-119,540405
-121,35315
-129,71191
-133,2367
-134,24377
-134,6466
-134,84802
-138,07068
-141,29333
-147,63794
-159,7229
-157,2052
-161,53564
-165,06042
-169,49158
-166,87317
-170,39795
-167,88025
-157,60803
-164,25476
-154,58679
-154,38538
-158,91724
-150,8606
-144,51599
-131,62537
-136,66077
-129,30908
-120,24536
-116,61987
-112,89368
-105,54199
-103,22571
-99,60022
-95,269775
-91,34216
-97,98889
-94,262695
-108,36182
-105,13916
-107,455444
-103,22571
-110,476685
-108,76465
-120,7489
-118,2312
-116,31775
-111,38306
-120,64819
-130,41687
-132,0282
-135,7544
-139,98413
-140,48767
-139,48059
-139,78271
-148,84644
-153,3783
-144,41528
-148,24219
-144,31458
-150,15564
-150,45776
-138,87634
-116,82129
-115,61279
-107,05261
-103,22571
-98,794556
-103,22571
-95,269775
-92,95349
-86,8103
-85,29968
-83,48694
-88,11951
-87,31384
-90,33508
-98,794556
-91,14075
-88,220215
-96,67969
-90,43579
-95,87402
-93,759155
-95,06836
-100,10376
-107,25403
-100,6073
-109,3689
-114,10217
-120,7489
-124,87793
-122,66235
-127,597046
-129,10767
-123,568726
-127,99988
-126,79138
-127,597046
-118,13049
-121,65527
-120,34607
-116,922
-109,87244
-104,73633
-102,01721
-98,99597
-96,67969
-100,50659
-86,709595
-79,76074
-82,9834
-75,531006
-73,013306
-65,963745
-72,81189
-75,027466
-77,645874
-73,31543
-78,652954
-82,88269
-86,00464
-90,63721
-89,63013
-96,276855
-88,220215
-90,93933
-92,34924
-94,3634
-97,08252
-103,62854
-107,65686
-110,87952
-113,1958
-110,07385
-123,36731
-113,90076
-113,69934
-119,74182
-119,33899
-113,1958
-111,8866
-110,27527
-100,40588
-92,34924
-93,15491
-85,80322
-73,71826
-73,41614
-71,20056
-67,27295
-62,338257
-62,13684
-52,972412
-53,878784
-53,979492
-53,778076
-57,403564
-63,546753
-63,546753
-62,64038
-71,60339
-72,61047
-72,81189
-73,41614
-61,029053
-72,9126
-70,999146
-82,58057
-92,65137
-98,19031
-98,0896
-99,19739
-101,412964
-107,25403
-103,22571
-110,27527
-107,65686
-111,58447
-112,28943
-113,80005
-104,63562
-101,01013
-90,737915
-80,86853
-87,716675
-68,38074
-66,56799
-60,72693
-57,10144
-54,18091
-52,670288
-45,92285
-47,43347
-47,03064
-48,03772
-46,124268
-47,03064
-48,03772
-45,318604
-49,54834
-53,778076
-58,20923
-60,22339
-63,546753
-61,834717
-61,532593
-69,1864
-80,26428
-84,49402
-77,041626
-83,688354
-89,12659
-96,67969
-98,291016
-90,33508
-88,11951
-87,81738
-81,27136
-84,49402
-84,89685
-89,63013
-81,87561
-63,848877
-63,14392
-59,014893
-50,958252
-49,749756
-46,325684
-49,749756
-38,87329
-41,4917
-41,290283
-31,219482
-33,33435
-32,42798
-37,96692
-35,95276
-40,786743
-37,664795
-43,00232
-46,42639
-49,346924
-57,20215
-57,70569
-50,253296
-52,670288
-53,878784
-56,799316
-65,15808
-67,57507
-75,531006
-81,47278
-83,99048
-87,716675
-83,184814
-82,07703
-82,681274
-85,702515
-91,34216
-85,80322
-83,88977
-79,055786
-73,61755
-59,1156
-62,338257
-57,20215
-47,53418
-35,147095
-35,44922
-38,36975
-34,643555
-35,34851
-23,464966
-23,464966
-24,975586
-26,687622
-27,593994
-33,737183
-36,758423
-44,311523
-38,772583
-49,246216
-53,878784
-55,288696
-57,60498
-52,56958
-55,892944
-62,74109
-58,309937
-65,86304
-69,38782
-72,20764
-73,41614
-77,34375
-75,531006
-76,23596
-77,041626
-77,84729
-71,502686
-74,62463
-79,055786
-68,68286
-60,827637
-59,921265
-49,850464
-48,742676
-41,088867
-40,48462
-34,643555
-28,903198
-21,853638
-21,75293
-19,134521
-18,026733
-15,206909
-15,408325
-20,645142
-24,472046
-27,996826
-25,680542
-31,32019
-30,917358
-41,4917
-36,758423
-33,233643
-39,074707
-44,41223
-51,461792
-55,08728
-57,20215
-69,68994
-59,921265
-69,1864
-68,78357
-66,36658
-67,57507
-67,977905
-71,60339
-72,40906
-72,81189
-73,31543
-71,09985
-48,94409
-48,138428
-42,095947
-40,786743
-37,261963
-31,924438
-28,701782
-18,026733
-12,084961
-13,092041
-10,372925
-3,2226562
-9,667969
-12,185669
-12,890625
-10,977173
-20,040894
-21,350098
-28,601074
-30,81665
-41,693115
-40,786743
-35,147095
-50,152588
-45,620728
-46,02356
-49,749756
-55,490112
-65,15808
-65,460205
-70,69702
-68,984985
-67,77649
-62,338257
-64,75525
-67,37366
-70,19348
-71,20056
-61,6333
-58,10852
-48,03772
-37,261963
-38,571167
-27,79541
-31,219482
-24,069214
-16,616821
-9,466553
-0,30212402
-4,1290283
2,4169922
3,3233643
-7,1502686
-2,7191162
-10,171509
-15,106201
-13,394165
-15,609741
-17,72461
-20,846558
-22,76001
-26,78833
-28,500366
-27,79541
-29,708862
-33,33435
-44,51294
-46,92993
-56,799316
-59,317017
-61,532593
-62,036133
-62,64038
-65,460205
-64,05029
-65,76233
-64,151
-64,75525
-66,970825
-63,345337
-48,742676
-44,311523
-36,758423
-36,85913
-31,622314
-32,125854
-20,645142
-18,127441
-13,796997
-8,660889
-9,869385
-3,3233643
-5,3375244
-1,8127441
-13,394165
-13,494873
-17,523193
-14,300537
-23,26355
-26,889038
-32,025146
-40,182495
-32,730103
-36,758423
-39,37683
-39,678955
-43,40515
-49,54834
-47,634888
-46,42639
-54,18091
-48,54126
-54,0802
-48,54126
-49,0448
-57,60498
-57,70569
-51,461792
-46,224976
-51,461792
-38,974
-33,132935
-33,032227
-27,29187
-22,457886
-17,926025
-14,804077
-3,3233643
0
3,1219482
5,9417725
9,164429
2,7191162
1,1077881
1,2084961
-0,40283203
-11,984253
-13,192749
-15,206909
-17,825317
-17,72461
-17,623901
-23,464966
-22,457886
-29,507446
-27,392578
-37,765503
-41,89453
-45,01648
-46,02356
-47,332764
-51,159668
-49,346924
-53,375244
-57,000732
-59,21631
-56,295776
-52,468872
-52,267456
-46,42639
-45,721436
-32,730103
-26,687622
-22,558594
-14,401245
-10,775757
-3,7261963
-5,5389404
0,9063721
5,3375244
-4,3304443
1,1077881
1,3092041
-1,9134521
1,5106201
-3,5247803
-4,3304443
-4,6325684
-14,300537
-18,630981
-15,811157
-20,443726
-10,171509
-17,623901
-21,350098
-24,673462
-30,917358
-37,96692
-35,44922
-48,239136
-48,239136
-48,641968
-56,295776
-54,885864
-51,260376
-49,246216
-42,095947
-55,892944
-48,54126
-46,02356
-31,018066
-20,443726
-22,055054
-10,876465
-22,357178
-11,077881
-4,1290283
-5,1361084
-1,2084961
5,0354004
2,9205322
2,7191162
14,300537
5,5389404
-0,50354004
7,8552246
-0,30212402
-7,0495605
-16,516113
-10,977173
-11,279297
-16,818237
-15,206909
-8,963013
-20,443726
-18,22815
-32,629395
-34,44214
-40,081787
-45,318604
-38,87329
-49,649048
-48,742676
-50,756836
-50,354004
-50,958252
-53,475952
-45,721436
-53,878784
-49,0448
-38,067627
-27,493286
-24,27063
-17,623901
-0,50354004
-2,0141602
3,6254883
11,077881
8,157349
9,365845
5,8410645
5,2368164
12,084961
3,9276123
7,6538086
4,9346924
5,9417725
10,775757
2,9205322
3,9276123
-1,5106201
-12,185669
-7,5531006
-13,494873
-15,206909
-24,874878
-23,26355
-31,521606
-37,060547
-43,203735
-38,671875
-39,175415
-42,599487
-46,02356
-37,161255
-40,38391
-38,36975
-28,903198
-41,189575
-39,578247
-31,521606
-16,21399
-17,623901
-7,7545166
-6,3446045
-6,4453125
-1,4099121
0,9063721
12,487793
10,775757
13,192749
11,883545
15,609741
12,890625
21,148682
18,026733
6,4453125
5,9417725
-1,0070801
-0,60424805
-9,567261
-9,970093
-5,7403564
-10,775757
-6,5460205
-11,984253
-19,839478
-23,565674
-30,413818
-33,737183
-35,046387
-35,34851
-42,599487
-42,49878
-51,159668
-54,281616
-51,864624
-57,000732
-51,763916
-48,94409
-38,168335
-24,673462
-20,141602
-21,24939
-18,630981
-14,602661
-8,963013
-9,164429
-0,40283203
-0,50354004
10,876465
13,595581
9,667969
18,026733
14,602661
17,321777
19,638062
23,26355
12,689209
12,185669
0,30212402
0,20141602
-4,0283203
-8,157349
-6,1431885
-6,7474365
-16,516113
-25,076294
-35,44922
-32,125854
-30,31311
-36,35559
-32,025146
-39,175415
-43,103027
-38,87329
-41,189575
-49,0448
-46,325684
-52,06604
-29,507446
-24,673462
-15,106201
-18,026733
-11,581421
-1,8127441
-0,10070801
3,7261963
1,1077881
8,761597
7,1502686
13,293457
10,977173
5,8410645
7,1502686
5,3375244
-1,3092041
2,8198242
-3,5247803
-3,5247803
-7,5531006
-9,365845
-7,0495605
-10,473633
-13,595581
-17,926025
-29,608154
-34,94568
-36,95984
-38,168335
-41,39099
-39,175415
-44,815063
-57,10144
-47,332764
-47,332764
-46,627808
-40,48462
-38,168335
-33,737183
-27,996826
-19,134521
-12,991333
-6,1431885
0,10070801
3,3233643
16,71753
5,1361084
12,890625
19,436646
22,961426
21,853638
22,961426
19,033813
27,79541
18,73169
14,804077
23,867798
6,0424805
1,3092041
-1,8127441
-2,3162842
0,50354004
-1,8127441
-1,5106201
-8,761597
-15,609741
-13,796997
-26,083374
-27,29187
-25,680542
-29,507446
-33,737183
-32,730103
-33,737183
-38,47046
-37,46338
-37,765503
-31,924438
-35,247803
-27,090454
-12,789917
-8,157349
-0,30212402
-4,8339844
-1,4099121
8,963013
8,157349
7,7545166
11,782837
11,480713
11,581421
14,300537
8,963013
12,387085
10,473633
7,1502686
11,682129
2,6184082
-1,1077881
-2,7191162
-6,1431885
1,1077881
1,3092041
5,2368164
-2,9205322
-9,768677
-16,415405
-19,839478
-26,989746
-32,528687
-36,35559
-39,37683
-34,94568
-43,707275
-41,793823
-34,542847
-38,974
-41,189575
-41,99524
-29,30603
-15,509033
-9,466553
3,7261963
3,0212402
11,782837
9,063721
6,8481445
17,825317
11,984253
17,72461
16,818237
14,904785
16,113281
13,394165
11,984253
10,473633
4,9346924
1,2084961
5,1361084
3,3233643
0,10070801
1,5106201
-1,8127441
6,9488525
-7,5531006
-4,3304443
-21,652222
-31,219482
-24,069214
-33,233643
-40,38391
-32,32727
-39,88037
-41,592407
-46,124268
-47,634888
-50,05188
-48,742676
-41,189575
-33,43506
-15,811157
-10,272217
-4,8339844
1,0070801
17,72461
6,2438965
2,4169922
9,667969
7,6538086
12,185669
14,199829
13,394165
12,185669
12,689209
14,804077
4,7332764
-0,30212402
-1,2084961
-5,9417725
-9,667969
-10,876465
-12,789917
-10,372925
-17,72461
-16,71753
-19,638062
-26,28479
-24,169922
-31,521606
-30,917358
-31,521606
-44,110107
-36,657715
-41,290283
-40,081787
-36,053467
-36,758423
-34,44214
-35,95276
-29,910278
-23,968506
-16,012573
-10,473633
-5,6396484
1,7120361
9,768677
10,775757
14,804077
11,178589
17,623901
20,24231
22,76001
22,25647
18,127441
22,055054
12,185669
5,6396484
2,9205322
-2,9205322
-4,3304443
-1,9134521
3,2226562
-14,602661
-5,6396484
-16,818237
-24,27063
-20,040894
-26,989746
-27,090454
-22,055054
-29,30603
-35,147095
-34,240723
-36,85913
-45,620728
-37,36267
-36,557007
-28,097534
-25,27771
-18,026733
-9,970093
-4,1290283
-6,4453125
0,50354004
8,258057
8,560181
14,804077
14,804077
20,141602
20,947266
17,623901
17,523193
21,954346
20,947266
8,761597
12,185669
10,171509
5,0354004
1,3092041
-1,4099121
-1,6113281
6,3446045
-3,4240723
-1,1077881
-8,660889
-14,501953
-21,350098
-23,364258
-23,364258
-29,104614
-31,521606
-28,701782
-32,125854
-27,694702
-36,758423
-35,751343
-40,182495
-38,067627
-37,564087
-24,169922
-25,27771
-12,387085
-8,459473
-10,775757
2,9205322
7,6538086
15,005493
22,558594
27,392578
26,486206
26,083374
26,28479
15,307617
18,630981
17,623901
18,429565
13,696289
8,560181
10,675049
-3,6254883
0,30212402
-3,1219482
-1,6113281
-0,50354004
-9,970093
-15,408325
-18,832397
-20,141602
-27,896118
-25,680542
-26,486206
-28,097534
-29,910278
-26,687622
-35,650635
-29,608154
-34,34143
-37,36267
-37,564087
-21,75293
-14,300537
-9,063721
-7,4523926
-0,10070801
6,9488525
8,358765
10,473633
12,286377
16,314697
23,062134
24,27063
22,357178
20,24231
17,120361
12,185669
11,682129
10,272217
14,904785
8,761597
0
4,3304443
-4,9346924
-1,5106201
-4,8339844
-4,7332764
-12,789917
-18,22815
-17,623901
-31,924438
-29,608154
-28,903198
-27,090454
-36,657715
-28,29895
-36,758423
-34,643555
-34,140015
-37,161255
-32,125854
-24,673462
-12,387085
-8,761597
-5,2368164
-0,30212402
8,963013
3,2226562
14,501953
16,616821
20,040894
16,21399
19,033813
15,106201
11,380005
2,4169922
10,775757
9,667969
17,019653
22,961426
5,3375244
5,1361084
0,70495605
0,40283203
5,8410645
-5,4382324
-4,6325684
-13,092041
-14,501953
-19,537354
-29,003906
-26,083374
-27,191162
-29,003906
-26,889038
-23,162842
-29,104614
-23,464966
-23,062134
-25,881958
-30,81665
-16,516113
-5,8410645
2,1148682
8,157349
8,258057
11,984253
9,365845
13,494873
12,185669
16,21399
18,429565
23,666382
19,537354
17,523193
25,78125
13,595581
9,063721
-1,7120361
6,4453125
-9,164429
-4,5318604
-3,3233643
-0,30212402
0,10070801
-2,2155762
-15,609741
-7,1502686
-10,775757
-9,567261
-18,429565
-21,853638
-23,062134
-21,954346
-25,076294
-23,464966
-34,744263
-25,378418
-28,399658
-32,528687
-38,87329
-26,687622
-15,811157
-5,1361084
1,3092041
7,4523926
13,394165
6,7474365
17,120361
14,300537
21,350098
20,040894
15,710449
20,141602
15,408325
19,638062
13,796997
10,171509
10,473633
7,2509766
5,5389404
0,80566406
0,10070801
1,0070801
-0,20141602
-2,7191162
-3,4240723
-9,970093
-15,509033
-24,472046
-23,565674
-25,680542
-23,968506
-31,622314
-29,205322
-29,708862
-27,694702
-33,132935
-29,910278
-33,33435
-31,924438
-25,680542
-8,963013
-12,185669
-7,5531006
1,7120361
1,1077881
4,7332764
9,164429
14,199829
23,26355
20,040894
12,588501
13,796997
20,443726
11,984253
15,307617
12,689209
12,286377
16,21399
10,372925
10,675049
6,4453125
18,22815
13,796997
13,696289
2,8198242
2,3162842
-4,7332764
-12,689209
-14,199829
-23,162842
-26,385498
-26,687622
-33,33435
-28,399658
-29,80957
-28,29895
-28,903198
-33,132935
-29,608154
-24,27063
-16,012573
-6,4453125
-10,171509
-3,8269043
2,2155762
9,365845
16,516113
17,120361
13,293457
18,429565
16,415405
16,71753
16,818237
10,574341
9,164429
15,307617
12,487793
11,984253
10,876465
13,595581
4,0283203
0,80566406
0,9063721
3,8269043
-3,0212402
-6,5460205
-12,890625
-13,595581
-13,796997
-20,846558
-24,169922
-26,586914
-32,528687
-28,500366
-29,30603
-29,507446
-27,593994
-25,982666
-27,896118
-29,205322
-14,401245
-6,9488525
-2,5177002
-1,1077881
7,4523926
14,804077
13,998413
16,113281
15,609741
23,76709
19,638062
23,062134
21,24939
23,162842
24,169922
18,429565
11,782837
8,358765
8,157349
10,574341
7,3516846
-0,40283203
-1,0070801
-4,8339844
-6,3446045
-17,422485
-17,825317
-28,29895
-33,132935
-33,33435
-35,751343
-42,196655
-38,671875
-35,751343
-47,836304
-44,311523
-39,37683
-39,88037
-38,571167
-24,77417
-22,155762
-7,9559326
-2,4169922
1,9134521
5,7403564
7,3516846
11,178589
16,21399
14,501953
18,832397
20,343018
16,516113
27,392578
19,033813
20,74585
14,501953
8,459473
0,50354004
4,5318604
1,7120361
-2,3162842
-11,279297
-4,6325684
-9,567261
-10,473633
-13,998413
-19,638062
-20,544434
-30,615234
-26,889038
-29,80957
-38,671875
-35,85205
-33,233643
-40,786743
-30,615234
-35,046387
-32,528687
-36,95984
-24,472046
-13,796997
-5,0354004
5,5389404
0,30212402
2,8198242
6,9488525
8,963013
10,171509
13,998413
13,796997
14,501953
21,551514
18,73169
17,623901
20,343018
15,307617
2,7191162
14,099121
8,560181
4,1290283
-2,1148682
-8,157349
-4,4311523
-0,9063721
-6,1431885
-9,667969
-12,185669
-15,609741
-21,954346
-24,27063
-30,615234
-29,003906
-29,205322
-27,29187
-30,010986
-34,140015
-32,42798
-36,85913
-33,33435
-28,903198
-23,867798
-15,206909
-16,616821
-1,3092041
3,8269043
9,365845
5,7403564
15,005493
18,832397
21,047974
21,954346
19,839478
16,918945
13,494873
13,998413
14,703369
10,372925
10,675049
12,185669
6,7474365
1,8127441
-0,70495605
10,574341
4,2297363
-1,9134521
-3,4240723
-9,970093
-16,415405
-16,516113
-15,408325
-15,609741
-21,450806
-23,666382
-25,579834
-20,846558
-29,30603
-27,090454
-33,43506
-28,500366
-21,551514
-13,998413
-6,7474365
-1,1077881
8,963013
5,5389404
10,372925
21,652222
26,687622
25,680542
22,961426
24,572754
32,93152
29,910278
19,839478
27,191162
15,811157
16,516113
17,019653
6,6467285
3,7261963
-0,9063721
6,5460205
-1,0070801
0,70495605
0,9063721
-10,675049
-19,335938
-21,350098
-28,399658
-21,148682
-30,81665
-32,93152
-31,924438
-39,276123
-42,800903
-33,43506
-33,33435
-36,154175
-37,96692
-13,595581
-15,811157
-7,3516846
-6,1431885
-0,9063721
3,9276123
6,8481445
11,883545
11,077881
28,601074
23,364258
23,062134
14,703369
21,047974
20,443726
15,005493
20,645142
11,480713
19,436646
15,408325
10,070801
-0,30212402
4,2297363
1,5106201
3,4240723
-8,258057
-6,2438965
-10,574341
-15,911865
-25,27771
-25,479126
-26,889038
-30,917358
-29,30603
-34,94568
-31,723022
-34,240723
-31,521606
-38,974
-39,47754
-22,357178
-16,415405
-16,113281
-15,509033
-9,063721
-4,1290283
-0,50354004
5,4382324
1,3092041
20,040894
20,24231
19,436646
17,422485
33,83789
32,226562
35,650635
39,578247
37,564087
30,917358
25,27771
11,581421
3,6254883
8,157349
10,171509
2,7191162
-0,9063721
5,0354004
-8,761597
-15,811157
-20,645142
-24,874878
-22,25647
-20,443726
-21,551514
-25,076294
-29,003906
-25,680542
-35,34851
-27,896118
-28,500366
-25,27771
-15,911865
-11,782837
-5,7403564
-6,9488525
3,7261963
6,4453125
13,293457
22,961426
17,422485
24,169922
33,233643
26,486206
17,825317
18,127441
18,22815
18,933105
16,21399
9,567261
9,768677
4,5318604
4,6325684
0,70495605
5,2368164
3,0212402
3,3233643
-10,272217
-11,782837
-18,026733
-25,27771
-27,694702
-29,910278
-31,622314
-33,83789
-32,93152
-34,94568
-35,650635
-44,41223
-37,664795
-25,680542
-27,694702
-15,911865
-5,3375244
-6,2438965
-1,5106201
-4,1290283
1,7120361
9,768677
16,71753
15,609741
14,904785
15,307617
19,839478
19,73877
24,371338
23,968506
18,429565
18,328857
12,991333
11,279297
11,178589
5,9417725
-0,9063721
4,3304443
0,70495605
-1,5106201
-4,2297363
-10,372925
-17,623901
-19,940186
-25,177002
-30,917358
-33,33435
-34,84497
-29,80957
-37,36267
-35,44922
-36,557007
-43,103027
-38,772583
-27,694702
-18,73169
-10,574341
-2,8198242
2,5177002
13,595581
22,25647
24,975586
34,94568
37,060547
41,39099
30,81665
26,28479
25,579834
21,24939
18,530273
9,466553
5,0354004
16,314697
13,192749
6,8481445
5,5389404
1,5106201
2,3162842
-0,9063721
-7,3516846
-7,4523926
-14,703369
-22,25647
-28,903198
-36,85913
-40,88745
-37,36267
-41,4917
-42,196655
-46,42639
-38,671875
-38,671875
-41,39099
-41,39099
-26,083374
-32,226562
-20,544434
-5,2368164
10,775757
14,904785
22,357178
28,701782
34,643555
34,94568
44,210815
37,36267
32,730103
31,420898
30,514526
31,420898
23,565674
16,818237
18,026733
15,408325
7,9559326
5,8410645
3,0212402
2,5177002
8,660889
4,3304443
-4,5318604
-7,1502686
-12,387085
-20,645142
-25,27771
-23,464966
-28,601074
-23,062134
-25,378418
-31,118774
-31,219482
-27,896118
-41,793823
-36,4563
-29,003906
-19,839478
-8,761597
-7,4523926
-6,6467285
4,1290283
10,171509
8,560181
10,171509
12,689209
18,530273
21,652222
21,652222
20,544434
21,047974
13,595581
13,998413
14,199829
18,026733
15,811157
4,0283203
3,6254883
-0,60424805
-4,7332764
-0,9063721
-11,782837
-11,077881
-16,818237
-18,530273
-29,608154
-23,867798
-26,687622
-20,24231
-33,132935
-30,413818
-31,118774
-28,097534
-27,896118
-26,889038
-30,81665
-21,551514
-23,26355
-9,667969
-6,6467285
-14,602661
-4,5318604
-2,1148682
4,4311523
16,818237
19,537354
25,881958
26,083374
20,645142
13,696289
18,026733
13,293457
14,199829
15,005493
19,033813
21,652222
13,897705
13,394165
9,768677
4,3304443
-0,9063721
7,7545166
-5,4382324
-6,0424805
-12,286377
-14,904785
-19,73877
-28,701782
-27,191162
-27,593994
-34,542847
-31,219482
-30,715942
-35,44922
-34,140015
-31,32019
-24,673462
-6,6467285
-2,2155762
-4,9346924
-2,6184082
2,8198242
11,279297
16,415405
13,092041
8,761597
19,436646
22,155762
26,486206
27,090454
26,486206
25,378418
10,372925
16,918945
3,8269043
8,056641
13,897705
4,8339844
2,3162842
-1,6113281
-1,1077881
-5,7403564
-3,4240723
-14,401245
-10,977173
-24,874878
-28,29895
-29,003906
-32,730103
-29,708862
-31,521606
-31,219482
-34,140015
-30,31311
-39,578247
-35,44922
-37,664795
-31,723022
-27,694702
-14,804077
-7,4523926
-2,1148682
7,2509766
9,164429
10,372925
12,588501
14,703369
15,509033
29,80957
27,896118
28,701782
24,572754
24,27063
24,77417
28,29895
20,343018
13,897705
12,588501
6,5460205
2,4169922
2,4169922
1,5106201
-4,0283203
-12,991333
-11,782837
-18,328857
-25,78125
-30,514526
-30,010986
-31,420898
-34,140015
-29,507446
-28,601074
-24,673462
-25,78125
-20,443726
-29,30603
-15,911865
-11,480713
-0,30212402
-1,4099121
6,5460205
11,581421
16,616821
19,940186
26,184082
27,593994
26,385498
22,055054
15,811157
15,911865
21,24939
24,069214
21,853638
21,24939
19,638062
4,3304443
8,862305
0
0,9063721
7,5531006
12,286377
-9,667969
-9,970093
-18,22815
-19,537354
-24,874878
-27,79541
-26,586914
-37,564087
-31,521606
-29,205322
-33,535767
-35,44922
-32,025146
-36,85913
-35,650635
-24,77417
-17,019653
-11,380005
-3,4240723
1,9134521
-3,9276123
12,890625
7,2509766
6,8481445
19,033813
14,904785
13,394165
10,574341
11,782837
12,890625
14,804077
19,033813
28,29895
9,365845
10,171509
1,8127441
0,50354004
0,10070801
-2,3162842
-2,9205322
-5,8410645
-18,832397
-21,148682
-24,169922
-23,464966
-27,191162
-20,846558
-25,378418
-25,27771
-24,371338
-18,127441
-18,026733
-25,579834
-12,084961
-12,789917
-12,789917
-1,0070801
7,3516846
10,272217
7,0495605
11,682129
16,818237
21,047974
19,73877
15,509033
19,134521
22,155762
20,645142
14,199829
16,113281
14,300537
10,574341
12,185669
0,10070801
0,20141602
-1,9134521
-4,6325684
3,0212402
3,4240723
8,560181
1,5106201
-2,5177002
-8,258057
-15,911865
-24,069214
-26,989746
-24,069214
-29,708862
-31,521606
-29,708862
-29,608154
-31,420898
-31,924438
-36,85913
-30,111694
-24,975586
-11,883545
-5,9417725
-2,8198242
-0,80566406
6,2438965
14,199829
15,005493
25,27771
23,968506
24,673462
26,586914
17,22107
21,853638
18,328857
15,206909
14,602661
10,977173
11,782837
9,063721
1,3092041
-2,0141602
1,7120361
-2,3162842
1,2084961
6,0424805
-11,581421
-16,113281
-23,26355
-23,26355
-29,30603
-27,090454
-31,219482
-27,493286
-25,881958
-31,521606
-26,889038
-32,226562
-31,219482
-26,385498
-18,328857
-1,5106201
-4,5318604
5,8410645
9,970093
7,6538086
10,372925
9,466553
21,450806
22,659302
22,961426
34,240723
23,464966
30,615234
20,947266
18,026733
20,846558
25,076294
17,825317
11,480713
3,9276123
-2,4169922
-1,1077881
7,3516846
-8,358765
-4,7332764
-16,71753
-18,933105
-19,033813
-24,27063
-19,23523
-30,615234
-42,49878
-34,643555
-34,140015
-34,94568
-36,85913
-35,751343
-30,111694
-29,708862
-20,947266
-14,904785
-8,660889
-5,7403564
1,6113281
6,5460205
16,71753
17,422485
12,286377
19,638062
21,450806
23,364258
32,42798
29,910278
25,076294
14,199829
25,579834
13,494873
13,293457
2,0141602
6,2438965
5,2368164
6,1431885
11,380005
7,1502686
3,5247803
0,70495605
-8,963013
-10,574341
-18,026733
-14,501953
-19,638062
-21,148682
-25,78125
-24,975586
-18,026733
-18,22815
-24,472046
-28,701782
-25,27771
-18,026733
-6,9488525
-3,7261963
-9,164429
-2,2155762
2,1148682
8,358765
15,408325
18,127441
27,493286
28,198242
20,24231
25,982666
21,450806
16,818237
20,947266
15,609741
12,185669
10,675049
-0,10070801
4,9346924
4,8339844
3,5247803
4,3304443
1,9134521
0,40283203
-3,2226562
-5,1361084
-12,588501
-17,321777
-21,450806
-19,638062
-14,703369
-22,457886
-20,544434
-24,77417
-29,205322
-29,708862
-26,184082
-26,486206
-27,29187
-11,984253
-10,775757
-3,5247803
4,3304443
2,5177002
10,977173
11,984253
12,387085
11,984253
12,185669
22,558594
21,350098
24,673462
25,579834
22,25647
13,494873
14,804077
15,206909
8,963013
-0,30212402
0
-5,1361084
-4,7332764
-10,775757
-13,796997
-17,825317
-19,638062
-22,860718
-14,300537
-24,27063
-27,090454
-32,528687
-37,765503
-42,90161
-41,89453
-40,88745
-44,311523
-45,822144
-36,657715
-28,903198
-14,602661
-9,063721
-7,5531006
6,2438965
-4,0283203
5,3375244
5,6396484
23,364258
23,364258
28,399658
21,551514
29,30603
33,33435
24,169922
20,947266
27,896118
22,558594
22,961426
19,436646
10,473633
12,890625
-0,50354004
4,9346924
6,9488525
5,5389404
-6,2438965
-8,963013
-21,450806
-19,537354
-21,148682
-24,371338
-32,528687
-31,32019
-40,786743
-35,147095
-34,542847
-34,44214
-30,615234
-30,917358
-23,867798
-14,099121
-14,501953
-1,4099121
4,2297363
5,3375244
6,6467285
6,4453125
8,963013
8,157349
13,897705
21,954346
10,171509
19,537354
16,818237
15,408325
24,169922
15,408325
11,984253
8,963013
13,192749
12,487793
2,8198242
2,9205322
-7,3516846
-12,185669
-18,832397
-19,839478
-25,27771
-25,680542
-25,982666
-25,076294
-26,385498
-29,507446
-28,500366
-22,357178
-16,616821
-14,804077
-19,839478
-14,804077
-9,365845
-14,099121
-0,9063721
0,80566406
6,3446045
8,660889
13,092041
15,811157
19,23523
16,918945
20,443726
25,579834
23,364258
29,205322
23,867798
21,24939
20,24231
12,991333
9,365845
-0,10070801
-2,8198242
1,7120361
2,1148682
3,0212402
-1,5106201
-8,761597
-7,3516846
-24,975586
-25,076294
-29,406738
-36,4563
-35,751343
-41,088867
-29,910278
-34,84497
-32,528687
-30,514526
-29,507446
-31,32019
-30,010986
-25,378418
-17,825317
-12,890625
-6,7474365
-1,3092041
4,5318604
5,7403564
9,667969
20,040894
23,464966
21,551514
24,975586
24,874878
25,177002
24,874878
19,436646
17,825317
10,876465
8,358765
7,4523926
1,6113281
-2,1148682
-7,4523926
2,7191162
-6,4453125
-9,667969
-12,185669
-13,998413
-23,062134
-26,78833
-22,25647
-26,78833
-31,219482
-26,486206
-19,23523
-22,25647
-25,881958
-23,062134
-19,638062
-22,76001
-19,638062
-8,358765
-5,5389404
4,8339844
8,157349
9,063721
11,581421
11,380005
13,494873
19,638062
24,371338
27,090454
25,076294
23,162842
30,010986
31,82373
24,77417
23,968506
19,940186
15,710449
9,466553
5,5389404
12,387085
11,380005
4,0283203
-5,7403564
-9,567261
-17,321777
-18,933105
-25,479126
-21,047974
-29,910278
-30,615234
-30,81665
-34,744263
-36,053467
-31,521606
-35,147095
-44,210815
-35,34851
-34,744263
-21,450806
-7,1502686
-7,7545166
-4,0283203
0,80566406
4,5318604
5,5389404
12,387085
15,509033
21,047974
15,206909
19,940186
23,162842
24,874878
25,881958
21,853638
19,839478
11,380005
11,279297
3,7261963
0,60424805
2,7191162
3,3233643
0,10070801
-11,883545
-7,5531006
-12,991333
-8,560181
-19,23523
-24,069214
-25,680542
-24,673462
-25,27771
-27,191162
-26,889038
-27,29187
-11,279297
-19,23523
-20,443726
-15,206909
4,9346924
-1,2084961
1,0070801
8,157349
4,3304443
6,9488525
16,113281
15,408325
18,530273
19,033813
16,818237
16,616821
21,853638
14,703369
15,509033
14,401245
13,897705
5,7403564
5,0354004
-1,5106201
-2,7191162
-0,30212402
-5,3375244
-7,4523926
-10,272217
-16,415405
-16,918945
-29,80957
-29,708862
-28,097534
-31,723022
-26,083374
-30,111694
-25,78125
-28,80249
-21,652222
-21,853638
-20,343018
-18,933105
-15,609741
-7,8552246
5,9417725
1,1077881
8,660889
17,22107
14,602661
19,335938
20,443726
22,055054
24,27063
30,81665
34,643555
29,406738
25,78125
22,25647
29,003906
15,609741
12,689209
15,609741
-4,5318604
6,2438965
4,2297363
2,2155762
3,3233643
-3,5247803
-11,178589
-9,164429
-14,199829
-19,638062
-21,24939
-24,27063
-31,521606
-26,28479
-27,996826
-24,069214
-27,593994
-16,616821
-20,040894
-23,162842
-16,616821
-9,265137
-10,171509
-0,9063721
-4,7332764
3,2226562
12,588501
13,998413
17,523193
19,638062
22,860718
25,378418
27,392578
24,371338
20,645142
28,097534
9,970093
18,22815
15,106201
10,876465
0,70495605
3,2226562
2,5177002
6,8481445
-0,10070801
-0,9063721
-1,5106201
-8,862305
-19,638062
-21,047974
-25,27771
-22,961426
-22,357178
-21,75293
-22,558594
-26,78833
-21,148682
-29,708862
-31,723022
-26,083374
-28,29895
-21,148682
-11,178589
-6,1431885
-0,30212402
10,070801
17,926025
13,192749
21,450806
27,493286
28,198242
21,24939
17,422485
18,429565
17,120361
17,019653
14,199829
11,279297
8,660889
4,9346924
-4,1290283
-3,0212402
-8,056641
-3,1219482
-3,5247803
-19,033813
-13,394165
-28,399658
-33,636475
-29,406738
-31,521606
-32,528687
-21,24939
-23,76709
-17,825317
-29,104614
-31,521606
-29,910278
-33,33435
-27,694702
-23,464966
-16,818237
-7,6538086
-0,10070801
-3,7261963
8,258057
15,609741
14,199829
17,422485
16,113281
21,148682
17,120361
27,090454
22,25647
23,968506
21,853638
20,141602
15,206909
10,977173
10,876465
-1,4099121
-4,1290283
-4,2297363
-3,8269043
-8,761597
-7,5531006
-17,22107
-23,26355
-23,26355
-28,097534
-36,254883
-36,053467
-31,924438
-34,34143
-38,47046
-36,85913
-34,140015
-34,744263
-35,85205
-32,730103
-27,090454
-17,120361
-0,70495605
0,50354004
5,7403564
8,862305
9,768677
10,574341
16,21399
21,954346
24,572754
23,867798
25,177002
13,897705
15,206909
21,652222
19,335938
16,415405
16,113281
18,933105
6,1431885
9,768677
7,7545166
8,056641
8,157349
-0,50354004
-3,7261963
-12,185669
-9,869385
-17,019653
-21,450806
-24,673462
-31,219482
-32,42798
-28,198242
-36,557007
-38,269043
-35,046387
-39,98108
-41,290283
-41,39099
-29,708862
-18,429565
-17,22107
-6,6467285
-2,9205322
1,6113281
8,459473
8,560181
14,501953
14,804077
18,127441
28,701782
27,79541
32,730103
31,118774
21,350098
21,75293
13,192749
15,206909
2,5177002
6,8481445
5,1361084
13,595581
7,2509766
7,2509766
-2,0141602
-11,077881
-16,21399
-20,846558
-22,155762
-23,162842
-27,694702
-32,629395
-30,514526
-32,93152
-32,83081
-34,94568
-37,564087
-23,76709
-29,30603
-19,73877
-16,113281
-5,7403564
1,0070801
-0,10070801
0,50354004
9,265137
19,73877
20,947266
19,335938
24,77417
25,680542
27,090454
26,083374
23,867798
15,710449
15,811157
19,436646
9,466553
6,6467285
1,5106201
-7,3516846
-5,0354004
-4,3304443
1,3092041
-8,761597
-8,660889
-16,113281
-15,710449
-23,565674
-24,874878
-34,94568
-28,701782
-29,708862
-32,125854
-30,917358
-26,889038
-26,687622
-28,80249
-19,839478
-12,387085
-2,7191162
-4,3304443
6,1431885
4,9346924
3,0212402
8,963013
9,869385
13,192749
21,652222
24,472046
28,097534
22,357178
25,881958
25,479126
23,464966
16,113281
20,443726
11,380005
9,869385
0,9063721
-5,5389404
-0,30212402
-2,4169922
-6,6467285
-0,10070801
-6,3446045
-19,436646
-22,558594
-20,24231
-28,198242
-27,694702
-31,32019
-36,557007
-30,31311
-31,118774
-34,542847
-34,542847
-37,36267
-38,671875
-27,79541
-21,954346
-12,789917
-3,3233643
-4,5318604
6,6467285
5,5389404
20,645142
18,933105
27,191162
32,32727
33,233643
32,629395
34,94568
37,46338
34,039307
25,479126
25,378418
21,24939
13,092041
8,258057
6,1431885
-0,10070801
7,3516846
-0,9063721
5,9417725
-10,171509
-13,192749
-18,933105
-21,450806
-28,29895
-27,191162
-45,41931
-34,140015
-36,4563
-32,025146
-30,111694
-32,83081
-30,31311
-22,961426
-14,804077
-4,7332764
2,5177002
-2,5177002
-6,5460205
1,0070801
11,581421
11,682129
19,638062
22,659302
27,79541
26,989746
24,27063
19,839478
22,25647
23,364258
21,954346
17,825317
11,480713
4,8339844
-6,3446045
-3,7261963
-4,3304443
-4,6325684
-5,2368164
-10,574341
-19,23523
-23,364258
-19,335938
-21,24939
-23,26355
-29,608154
-26,486206
-31,82373
-28,701782
-27,694702
-30,111694
-33,636475
-37,96692
-28,399658
-26,083374
-12,387085
-7,8552246
-1,1077881
-2,7191162
2,2155762
5,7403564
10,171509
10,675049
8,459473
13,092041
13,998413
21,652222
27,896118
32,93152
35,95276
31,018066
20,544434
26,889038
16,113281
11,581421
8,459473
15,206909
14,602661
3,4240723
-4,0283203
-7,1502686
-7,7545166
-18,328857
-15,609741
-20,74585
-21,24939
-26,486206
-29,30603
-22,457886
-28,097534
-30,212402
-30,010986
-28,500366
-31,118774
-18,026733
-11,581421
-2,7191162
1,6113281
3,3233643
6,5460205
12,286377
19,537354
23,162842
27,191162
24,673462
27,090454
27,29187
30,917358
24,169922
24,975586
22,155762
22,961426
9,567261
11,380005
8,157349
13,595581
9,365845
6,8481445
5,7403564
-6,9488525
-11,682129
-17,523193
-20,443726
-28,29895
-26,889038
-31,723022
-34,84497
-34,643555
-34,34143
-34,34143
-34,542847
-29,708862
-25,076294
-22,860718
-15,408325
-3,1219482
-6,8481445
0,80566406
5,8410645
5,6396484
8,761597
14,904785
16,21399
20,443726
26,385498
13,293457
23,26355
16,818237
29,507446
33,33435
26,28479
14,199829
20,040894
1,4099121
2,1148682
-0,10070801
5,9417725
4,6325684
0,10070801
-10,171509
-10,574341
-19,134521
-20,846558
-25,78125
-22,457886
-30,514526
-25,579834
-33,737183
-37,765503
-34,643555
-39,074707
-37,564087
-34,94568
-27,694702
-22,860718
-14,904785
-11,178589
-1,4099121
3,8269043
15,509033
19,033813
15,408325
21,75293
27,79541
35,147095
35,95276
27,493286
24,371338
21,652222
24,673462
16,616821
11,883545
12,185669
5,7403564
11,581421
3,7261963
10,876465
7,3516846
-2,5177002
-1,4099121
-21,24939
-17,422485
-23,666382
-19,638062
-22,357178
-24,975586
-24,572754
-24,874878
-24,77417
-24,472046
-25,982666
-24,069214
-23,364258
-24,069214
-14,804077
2,3162842
6,3446045
4,1290283
11,883545
12,387085
13,998413
16,71753
21,954346
20,343018
22,860718
23,565674
15,609741
13,595581
12,991333
13,394165
11,984253
9,667969
19,940186
6,1431885
4,5318604
-0,50354004
-3,5247803
-0,60424805
5,5389404
-1,2084961
-7,3516846
-14,300537
-16,71753
-24,472046
-25,177002
-26,28479
-32,32727
-32,42798
-35,85205
-30,917358
-29,30603
-32,125854
-26,586914
-24,874878
-18,127441
-9,869385
-7,3516846
-4,7332764
-5,7403564
3,0212402
13,293457
22,659302
22,860718
24,77417
22,860718
26,083374
23,464966
21,047974
25,982666
20,645142
10,977173
10,272217
7,3516846
4,9346924
4,2297363
-4,2297363
0,20141602
0,30212402
-2,7191162
-7,4523926
-16,012573
-17,019653
-24,371338
-20,24231
-26,385498
-30,715942
-33,737183
-29,205322
-29,205322
-33,33435
-32,528687
-32,42798
-37,36267
-40,585327
-28,500366
-12,991333
-5,5389404
-0,10070801
3,5247803
11,380005
10,272217
23,062134
31,521606
36,053467
33,9386
25,982666
30,111694
23,666382
18,832397
24,673462
14,804077
15,609741
9,970093
-0,50354004
0,20141602
1,8127441
2,5177002
0,9063721
-2,9205322
-6,8481445
-17,422485
-20,343018
-26,486206
-33,737183
-27,896118
-26,78833
-30,111694
-31,82373
-37,060547
-36,758423
-35,650635
-35,046387
-32,83081
-32,226562
-25,680542
-7,3516846
-9,970093
-12,991333
2,0141602
4,1290283
18,22815
20,544434
24,874878
33,33435
33,33435
30,31311
32,93152
31,622314
29,003906
34,140015
25,579834
20,24231
9,667969
5,3375244
2,0141602
-5,1361084
-2,3162842
0,50354004
-3,2226562
2,8198242
-5,5389404
-7,2509766
-12,286377
-11,782837
-19,335938
-22,961426
-23,162842
-27,29187
-24,874878
-25,78125
-31,219482
-31,723022
-28,399658
-22,357178
-13,192749
-9,466553
-5,1361084
-1,5106201
5,5389404
1,7120361
8,157349
11,682129
17,825317
23,666382
28,701782
30,212402
30,81665
29,910278
23,26355
16,21399
19,335938
9,164429
8,761597
7,3516846
1,1077881
-2,4169922
-1,1077881
9,768677
1,8127441
2,2155762
-7,6538086
-9,970093
-17,623901
-23,364258
-26,78833
-23,968506
-21,853638
-32,32727
-37,060547
-21,652222
-35,247803
-34,94568
-28,097534
-27,593994
-20,544434
-10,473633
-7,0495605
-3,5247803
-2,8198242
1,1077881
18,429565
25,78125
24,169922
18,429565
20,040894
21,450806
24,572754
22,860718
21,853638
16,113281
21,350098
15,811157
15,005493
4,1290283
2,6184082
-4,8339844
2,9205322
1,6113281
-5,0354004
-10,272217
-14,703369
-15,911865
-17,825317
-17,926025
-24,472046
-28,198242
-24,472046
-24,874878
-24,27063
-27,29187
-31,018066
-28,29895
-36,85913
-30,715942
-24,169922
-28,500366
-13,394165
-8,560181
2,9205322
8,560181
7,8552246
10,272217
13,796997
21,350098
21,350098
20,24231
22,558594
21,853638
19,436646
17,825317
17,523193
17,422485
13,192749
8,258057
6,7474365
10,272217
12,084961
8,761597
5,1361084
3,2226562
-4,0283203
-11,682129
-17,120361
-21,75293
-21,047974
-21,954346
-24,975586
-28,29895
-29,507446
-26,28479
-26,385498
-27,593994
-21,652222
-25,881958
-23,666382
-9,365845
-3,5247803
-0,80566406
-2,4169922
2,3162842
12,991333
10,775757
17,523193
21,75293
31,723022
26,184082
18,832397
20,947266
20,645142
22,25647
24,572754
17,926025
22,25647
11,581421
4,8339844
3,3233643
5,3375244
4,2297363
11,984253
-0,20141602
-12,387085
-19,033813
-20,24231
-25,579834
-26,586914
-29,205322
-27,090454
-26,78833
-27,29187
-34,744263
-35,549927
-39,578247
-42,700195
-34,44214
-27,896118
-13,394165
-10,171509
2,6184082
9,164429
15,710449
17,22107
14,501953
19,436646
23,464966
23,062134
28,097534
23,565674
26,28479
25,076294
19,033813
20,544434
5,3375244
10,473633
11,279297
2,6184082
-0,30212402
-4,7332764
-1,9134521
-5,7403564
-14,602661
-24,27063
-23,867798
-41,088867
-34,140015
-31,118774
-31,82373
-22,860718
-33,83789
-28,399658
-28,500366
-27,896118
-30,917358
-24,673462
-28,29895
-19,335938
-4,4311523
2,9205322
0,80566406
15,206909
17,422485
21,350098
34,94568
24,572754
30,917358
26,28479
25,78125
23,565674
16,415405
21,047974
22,357178
18,127441
16,616821
15,408325
3,6254883
-1,1077881
-3,2226562
-4,3304443
5,2368164
-7,3516846
-14,804077
-21,24939
-30,514526
-28,097534
-27,996826
-32,32727
-33,032227
-38,067627
-42,700195
-46,42639
-40,585327
-42,800903
-36,657715
-36,4563
-33,636475
-20,846558
-0,10070801
8,258057
24,27063
16,21399
21,551514
23,062134
24,77417
31,32019
23,565674
26,687622
33,535767
29,003906
26,586914
21,148682
24,069214
28,500366
9,869385
13,696289
16,21399
15,609741
4,8339844
1,3092041
0,70495605
-5,7403564
-3,9276123
-14,401245
-18,630981
-26,78833
-26,184082
-33,737183
-35,34851
-37,36267
-35,95276
-33,9386
-30,212402
-36,053467
-34,542847
-32,83081
-36,053467
-27,996826
-17,72461
-14,099121
-12,286377
-1,5106201
1,2084961
7,3516846
6,2438965
14,401245
12,286377
17,422485
20,443726
29,003906
19,335938
16,415405
19,940186
19,23523
10,473633
14,904785
15,307617
5,3375244
12,991333
2,1148682
15,811157
11,077881
-6,1431885
-5,6396484
-12,588501
-17,72461
-26,78833
-23,062134
-18,429565
-31,018066
-25,881958
-31,521606
-28,29895
-36,154175
-32,528687
-25,177002
-27,896118
-21,148682
-7,1502686
-6,4453125
-0,70495605
0,60424805
2,5177002
12,789917
14,904785
11,581421
21,954346
24,27063
19,839478
22,558594
27,29187
21,551514
23,464966
15,710449
18,630981
16,818237
12,387085
10,775757
4,1290283
2,7191162
2,6184082
4,9346924
-5,7403564
-14,501953
-19,638062
-20,846558
-14,501953
-18,530273
-25,881958
-21,24939
-20,443726
-21,148682
-22,055054
-22,76001
-24,673462
-22,860718
-29,30603
-22,357178
-10,977173
-8,056641
-6,2438965
4,3304443
3,5247803
12,588501
22,76001
17,623901
24,371338
24,874878
29,507446
32,226562
32,83081
23,867798
22,76001
9,567261
17,523193
20,645142
11,984253
9,466553
5,3375244
-1,0070801
-4,4311523
-0,50354004
-3,6254883
-4,9346924
-15,408325
-24,673462
-31,924438
-31,521606
-34,94568
-35,95276
-38,671875
-35,650635
-36,154175
-27,493286
-25,076294
-23,062134
-28,701782
-21,853638
-17,422485
-1,5106201
-1,5106201
-0,9063721
11,279297
16,516113
18,832397
21,450806
21,450806
26,28479
26,889038
25,177002
26,586914
23,867798
24,27063
23,666382
18,530273
13,192749
13,192749
7,5531006
2,7191162
4,9346924
11,581421
2,2155762
-3,7261963
-8,358765
-10,775757
-19,23523
-21,954346
-28,198242
-25,579834
-34,140015
-34,542847
-37,564087
-34,84497
-38,47046
-32,629395
-34,34143
-34,94568
-27,29187
-26,28479
-14,401245
-9,667969
-1,7120361
-2,3162842
3,9276123
9,667969
15,811157
23,364258
24,27063
25,479126
31,018066
35,34851
21,24939
20,443726
16,818237
16,21399
13,293457
18,026733
8,963013
3,3233643
0,10070801
2,6184082
0,10070801
-10,473633
-7,5531006
-16,113281
-12,588501
-23,26355
-25,378418
-30,31311
-28,601074
-25,378418
-30,81665
-29,910278
-34,744263
-27,996826
-31,82373
-31,219482
-20,74585
-8,761597
-6,2438965
-10,775757
10,977173
6,4453125
6,1431885
14,904785
15,005493
22,055054
23,062134
22,860718
26,687622
22,961426
24,874878
21,551514
21,148682
19,335938
13,092041
11,984253
5,4382324
3,7261963
-4,5318604
-7,2509766
-9,063721
-12,084961
-15,408325
-21,24939
-27,593994
-31,219482
-23,565674
-22,055054
-30,514526
-30,514526
-29,608154
-34,44214
-32,528687
-22,055054
-34,44214
-28,601074
-25,076294
-21,450806
-9,164429
-5,4382324
11,782837
9,265137
14,501953
19,537354
24,874878
23,26355
21,853638
23,364258
24,673462
20,443726
19,839478
15,811157
17,019653
17,623901
16,616821
11,279297
6,9488525
6,7474365
4,4311523
6,2438965
2,2155762
0,10070801
-2,4169922
-8,761597
-16,71753
-17,926025
-21,853638
-26,184082
-24,874878
-24,069214
-28,80249
-32,42798
-30,111694
-33,233643
-33,535767
-31,018066
-20,645142
-3,4240723
0,20141602
-0,10070801
3,3233643
5,3375244
10,977173
13,998413
13,394165
19,033813
19,940186
23,565674
21,24939
21,853638
18,933105
20,343018
20,141602
22,25647
29,708862
11,682129
13,394165
5,5389404
-0,70495605
8,560181
4,3304443
3,2226562
3,2226562
-6,0424805
-22,860718
-17,623901
-26,486206
-19,638062
-20,74585
-29,30603
-29,003906
-34,94568
-29,608154
-29,104614
-24,975586
-31,521606
-22,25647
-14,199829
-3,1219482
-3,6254883
3,5247803
9,164429
16,21399
12,991333
16,818237
20,74585
22,25647
22,357178
16,918945
22,055054
20,947266
21,853638
23,666382
19,033813
15,811157
11,077881
6,1431885
3,5247803
2,4169922
2,5177002
-0,30212402
7,1502686
-9,063721
-5,9417725
-15,811157
-21,652222
-28,903198
-32,730103
-32,528687
-26,989746
-31,32019
-30,010986
-30,917358
-30,514526
-30,81665
-33,33435
-28,701782
-18,328857
-16,21399
-10,272217
0,30212402
3,6254883
6,9488525
12,789917
18,832397
24,874878
18,22815
18,328857
20,443726
23,867798
20,645142
25,378418
19,23523
21,954346
14,300537
16,314697
11,380005
7,0495605
-0,30212402
-2,3162842
-4,3304443
-9,567261
-11,581421
-17,422485
-13,897705
-23,666382
-17,422485
-25,27771
-30,917358
-29,507446
-34,94568
-30,514526
-28,80249
-29,406738
-27,79541
-28,601074
-22,76001
-8,761597
-12,185669
-6,4453125
-2,7191162
3,5247803
10,171509
24,572754
23,26355
29,608154
28,097534
35,650635
33,132935
36,95984
28,29895
30,010986
24,27063
13,092041
16,516113
9,265137
5,7403564
-7,5531006
-9,164429
-5,1361084
-10,675049
-14,300537
-29,708862
-28,80249
-30,413818
-31,924438
-30,514526
-30,212402
-25,881958
-26,989746
-10,977173
-20,343018
-22,860718
-21,450806
-24,77417
-25,479126
-25,680542
-12,185669
-1,4099121
-0,50354004
-0,30212402
7,7545166
8,358765
12,487793
12,387085
17,422485
18,832397
24,874878
25,479126
22,25647
29,910278
22,155762
11,782837
12,588501
13,394165
7,0495605
-2,3162842
-1,5106201
-10,977173
1,8127441
3,7261963
-6,8481445
-8,761597
-13,998413
-21,652222
-27,593994
-27,896118
-34,94568
-37,664795
-38,974
-40,38391
-35,147095
-29,910278
-34,542847
-42,39807
-43,606567
-35,046387
-15,911865
-9,265137
2,1148682
6,4453125
12,689209
12,890625
24,572754
27,996826
27,392578
35,44922
38,36975
38,168335
30,413818
29,003906
23,565674
22,357178
8,963013
8,660889
7,4523926
11,782837
12,991333
5,4382324
8,963013
14,099121
13,394165
6,4453125
-6,2438965
-2,1148682
-14,199829
-18,026733
-21,450806
-23,364258
-30,81665
-33,535767
-19,033813
-35,147095
-22,558594
-25,881958
-30,31311
-27,090454
-24,874878
-14,703369
-7,9559326
0,9063721
9,768677
13,998413
15,106201
20,544434
20,947266
23,666382
19,335938
20,141602
20,141602
20,947266
18,832397
12,185669
12,185669
11,380005
15,005493
5,1361084
5,6396484
1,7120361
-0,20141602
0,50354004
-3,9276123
-7,9559326
-22,457886
-23,062134
-24,472046
-14,501953
-21,75293
-26,083374
-20,443726
-30,111694
-33,33435
-31,924438
-27,191162
-34,039307
-31,219482
-32,83081
-23,666382
-12,487793
-7,7545166
-3,7261963
1,7120361
5,5389404
2,2155762
7,4523926
6,4453125
8,258057
20,544434
23,565674
19,638062
19,134521
15,811157
19,033813
16,516113
9,667969
7,1502686
6,5460205
5,4382324
-2,9205322
0,30212402
6,0424805
5,7403564
6,8481445
-5,0354004
-1,3092041
-12,286377
-18,530273
-18,22815
-24,371338
-23,364258
-22,76001
-24,874878
-28,399658
-30,917358
-34,140015
-36,657715
-25,680542
-21,551514
-11,279297
-4,6325684
-1,0070801
3,3233643
15,005493
10,272217
13,394165
12,084961
17,321777
17,321777
17,22107
10,272217
19,134521
12,286377
10,977173
8,963013
4,1290283
5,4382324
-7,3516846
-8,761597
-21,551514
-10,070801
-9,466553
-12,689209
-2,6184082
-11,682129
-10,675049
-6,7474365
-3,7261963
-2,1148682
-8,761597
-5,7403564
-8,660889
-18,630981
-20,040894
-22,76001
-13,192749
-19,940186
-23,666382
-13,796997
-11,480713
-8,258057
-0,9063721
-2,9205322
6,1431885
14,199829
15,005493
18,530273
19,436646
23,26355
18,429565
21,652222
17,120361
18,73169
16,616821
20,141602
21,652222
23,464966
15,206909
16,616821
12,185669
15,005493
16,314697
10,775757
2,3162842
0,20141602
3,3233643
-5,1361084
-10,876465
-15,609741
-16,415405
-26,687622
-24,572754
-25,680542
-30,010986
-26,083374
-31,32019
-28,198242
-21,047974
-20,544434
-6,6467285
-4,1290283
-1,0070801
0,50354004
4,3304443
9,466553
8,560181
16,113281
22,155762
24,874878
24,975586
22,155762
17,825317
17,019653
17,422485
21,954346
14,804077
9,768677
6,1431885
2,2155762
-10,775757
-5,5389404
-5,5389404
-5,5389404
-10,775757
-12,286377
-23,968506
-23,162842
-30,81665
-28,29895
-26,586914
-33,33435
-29,910278
-36,95984
-32,730103
-36,35559
-35,046387
-35,85205
-25,479126
-21,450806
-12,789917
-17,019653
-4,9346924
-4,1290283
2,9205322
5,9417725
12,185669
20,040894
21,24939
27,29187
26,989746
26,28479
22,76001
31,723022
18,127441
18,530273
11,782837
3,8269043
-3,5247803
-2,5177002
-2,1148682
-5,2368164
-4,3304443
-3,9276123
-10,473633
-16,314697
-21,047974
-28,903198
-30,111694
-29,507446
-29,205322
-38,571167
-34,039307
-32,93152
-33,132935
-28,701782
-33,132935
-34,44214
-31,521606
-18,328857
-4,1290283
7,7545166
15,710449
17,321777
10,473633
20,645142
14,199829
30,31311
35,247803
26,989746
33,535767
30,31311
38,067627
22,055054
21,350098
11,581421
17,422485
13,796997
4,5318604
1,9134521
-10,272217
-2,6184082
5,3375244
4,9346924
-13,595581
-16,818237
-12,991333
-15,408325
-14,602661
-17,019653
-20,74585
-24,371338
-14,501953
-24,472046
-21,652222
-26,184082
-25,27771
-24,27063
-19,335938
-19,033813
-9,466553
2,1148682
6,1431885
13,494873
16,616821
18,530273
22,357178
32,32727
29,608154
35,549927
31,018066
30,31311
23,062134
21,148682
17,422485
10,876465
6,2438965
10,372925
14,099121
6,9488525
7,1502686
3,8269043
0,9063721
-2,9205322
-3,7261963
-14,602661
-25,579834
-27,996826
-23,76709
-26,385498
-34,744263
-33,132935
-34,44214
-34,744263
-49,44763
-43,606567
-36,95984
-38,571167
-32,93152
-18,832397
-10,574341
-7,1502686
5,7403564
7,4523926
17,523193
24,874878
27,996826
35,95276
32,226562
41,793823
39,779663
28,097534
26,486206
25,479126
27,896118
23,364258
21,954346
15,811157
16,314697
9,567261
10,171509
14,300537
14,602661
6,4453125
-5,1361084
-8,258057
-20,141602
-25,479126
-27,090454
-25,982666
-33,636475
-28,29895
-25,479126
-30,413818
-30,111694
-32,629395
-34,240723
-42,90161
-41,89453
-26,486206
-15,911865
-17,22107
-12,185669
2,3162842
5,5389404
5,0354004
14,602661
20,74585
24,77417
29,406738
25,881958
22,76001
20,544434
20,141602
20,846558
22,25647
11,077881
11,984253
6,2438965
3,9276123
2,6184082
6,1431885
10,171509
5,8410645
-5,1361084
-13,394165
-12,387085
-21,450806
-22,659302
-27,090454
-31,723022
-30,31311
-24,169922
-31,82373
-31,622314
-30,111694
-30,514526
-34,44214
-26,28479
-20,645142
-8,660889
-2,6184082
1,2084961
2,6184082
1,8127441
14,300537
15,106201
13,595581
17,422485
22,25647
21,450806
20,141602
21,954346
21,551514
19,134521
14,602661
4,5318604
13,998413
5,8410645
11,279297
9,768677
6,7474365
11,984253
6,8481445
5,5389404
0,60424805
-8,358765
-17,72461
-17,523193
-18,429565
-20,24231
-25,881958
-23,162842
-25,076294
-32,730103
-36,95984
-31,723022
-37,36267
-25,378418
-23,867798
-7,1502686
-3,2226562
-0,70495605
12,084961
18,429565
0,30212402
-15,307617
-15,609741
-7,0495605
-8,560181
3,9276123
5,5389404
6,9488525
1,1077881
4,0283203
-1,2084961
5,9417725
8,560181
10,272217
2,3162842
4,9346924
9,466553
10,775757
5,9417725
0,80566406
-8,056641
-6,3446045
-10,775757
-18,429565
-20,343018
-19,73877
-18,933105
-17,825317
-8,761597
-8,258057
-3,8269043
-4,3304443
-8,761597
-6,8481445
-8,963013
3,6254883
0,80566406
4,5318604
4,3304443
13,595581
10,977173
14,099121
16,616821
13,192749
2,8198242
15,005493
21,24939
38,269043
133,74023
231,72913
186,61194
162,84485
175,63477
233,13904
282,48596
287,52136
252,27356
190,64026
109,06677
44,41223
-28,500366
-87,716675
-129,20837
-167,276
-217,73071
-274,93286
-333,1421
-376,34583
-406,3568
-412,80212
-398,90442
-372,4182
-323,67554
-272,7173
-215,0116
-181,77795
-148,54431
-110,77881
-62,74109
-16,616821
-3,6254883
1,3092041
25,680542
37,765503
64,75525
80,56641
102,62146
116,61987
133,43811
145,22095
136,66077
137,0636
124,77722
103,02429
85,198975
64,75525
55,892944
57,000732
50,05188
43,606567
39,578247
39,175415
36,85913
29,104614
19,839478
-1,5106201
-13,796997
-31,118774
-43,103027
-50,656128
-56,396484
-57,10144
-57,806396
-40,585327
-22,860718
3,4240723
24,472046
28,601074
39,276123
46,829224
51,361084
50,958252
56,396484
58,20923
65,76233
106,448364
113,09509
81,27136
31,018066
-78,25012
-160,22644
-170,19653
-183,5907
-214,20593
-237,36877
-158,4137
22,659302
17,926025
-99,49951
-69,58923
42,599487
101,916504
120,34607
144,7174
164,15405
165,06042
161,43494
153,3783
152,47192
135,8551
105,03845
92,85278
93,0542
51,763916
19,436646
-9,164429
-45,92285
-77,645874
-104,937744
-118,533325
-152,06909
-201,51672
-215,41443
-181,67725
-178,656
-194,87
-238,37585
-265,16418
-236,66382
-162,64343
-103,22571
-25,982666
136,25793
265,06348
234,04541
135,45227
120,043945
155,79529
175,23193
214,00452
200,91248
187,11548
163,85193
143,60962
104,937744
41,793823
-12,387085
-22,659302
-10,372925
20,443726
38,974
23,062134
-1,3092041
-30,413818
-59,417725
-82,681274
-134,74731
-186,30981
-182,58362
-204,53796
-253,88489
-268,38684
-284,70154
-294,87305
-280,2704
-242,60559
-167,57812
-91,34216
-22,055054
36,557007
80,06287
143,4082
243,9148
298,80066
348,95325
384,60388
392,2577
405,14832
455,3009
552,3834
695,2881
649,66736
399,9115
212,99744
128,90625
118,33191
114,20288
104,53491
43,203735
-47,232056
-121,45386
-159,52148
-204,9408
-247,13745
-264,0564
-274,42932
-272,31445
-295,578
-301,21765
-294,57092
-260,3302
-217,83142
-224,17603
-212,39319
-205,24292
-193,6615
-180,46875
-139,27917
-118,2312
-116,31775
-113,69934
-96,47827
-84,2926
-58,61206
-17,019653
47,232056
120,043945
130,8197
-51,663208
-163,24768
-198,89832
-246,13037
-278,25623
-299,10278
-297,49146
-247,43958
-201,41602
-121,25244
-22,055054
87,213135
200,0061
243,00842
240,1886
201,11389
160,72998
137,1643
118,2312
88,82446
18,328857
-41,189575
-37,060547
26,78833
79,45862
62,942505
48,641968
44,51294
65,86304
73,31543
56,497192
26,687622
-2,1148682
-3,7261963
-5,5389404
9,063721
-0,60424805
19,033813
35,147095
28,198242
-0,10070801
-20,040894
-34,44214
-38,974
-59,71985
-84,695435
-63,546753
24,169922
85,09827
149,14856
246,13037
342,91077
441,90674
506,25916
435,56213
317,43164
235,55603
186,71265
111,68518
61,331177
32,32727
1,9134521
10,977173
66,76941
107,35474
101,61438
98,39172
81,87561
55,490112
20,24231
-25,680542
-85,09827
-119,540405
-158,81653
-216,2201
-251,06506
-281,47888
-283,59375
-255,2948
-229,31213
-220,85266
-202,72522
-185,70557
-161,0321
-112,89368
27,392578
157,00378
285,91003
498,1018
537,68005
456,5094
296,18225
73,013306
-132,43103
-301,11694
-436,3678
-532,84607
-572,82715
-529,422
-482,29065
-424,38354
-342,2058
-221,75903
-85,198975
17,422485
164,05334
355,8014
418,9453
419,44885
372,51892
353,78723
464,56604
645,2362
804,15344
782,1991
727,41394
656,4148
643,22205
638,7909
621,4691
657,8247
614,41956
531,33545
422,77222
320,5536
231,22559
99,19739
-56,19507
-249,0509
-385,40955
-470,80994
-584,00574
-726,6083
-900,6317
-1044,6442
-1115,744
-1172,2412
-1161,264
-1122,3907
-1070,224
-969,21387
-846,95435
-733,4564
-612,5061
-492,76428
-358,4198
-232,03125
-141,19263
-39,276123
52,06604
112,79297
162,94556
213,29956
274,53003
298,59924
307,56226
291,04614
244,92188
217,73071
223,06824
259,021
478,66516
741,51306
849,9756
680,0812
450,86975
218,8385
15,206909
-207,15637
-391,1499
-378,96423
-338,4796
-311,9934
-189,8346
70,19348
346,73767
545,33386
678,9734
734,4635
717,9474
570,7123
322,36633
49,145508
-105,03845
-120,84961
-85,90393
-101,815796
-160,42786
-241,29639
-324,17908
-381,0791
-389,63928
-372,82104
-346,13342
-339,28528
-342,70935
-293,161
-244,61975
-204,23584
-184,8999
-135,8551
-90,13367
-45,822144
-17,72461
-8,761597
23,062134
215,61584
472,32056
570,9137
569,4031
535,26306
574,5392
747,65625
976,2634
1013,12256
917,7521
768,7042
588,3362
424,48425
279,66614
154,98962
63,74817
-24,472046
-95,773315
-155,896
-213,09814
-263,35144
-317,93518
-370,9076
-416,2262
-487,02393
-578,6682
-645,5383
-706,26526
-724,79553
-679,4769
-562,95776
-505,85632
-500,6195
-532,0404
-596,89636
-668,0969
-715,7318
-732,0465
-716,33606
-627,4109
-375,64087
103,125
613,4125
813,9221
844,0338
792,87415
684,3109
512,9059
293,46313
128,2013
76,538086
62,338257
58,511353
19,335938
-16,012573
-38,168335
-52,267456
-45,822144
-37,564087
-47,836304
-79,660034
-134,04236
-176,54114
-168,5852
-186,1084
-212,4939
-212,09106
-205,84717
-178,05176
-143,91174
-128,50342
-52,368164
40,98816
131,82678
205,14221
205,34363
175,03052
132,53174
109,469604
97,18323
82,37915
74,42322
80,86853
77,645874
82,177734
73,81897
83,78906
249,0509
452,8839
587,3291
641,51
794,5862
998,5199
1049,2767
1061,966
1020,0714
877,26746
671,01746
482,8949
332,0343
210,78186
113,90076
17,422485
-78,25012
-170,70007
-271,10596
-383,29468
-518,74695
-636,3739
-754,00085
-848,8678
-914,1266
-979,3854
-1003,15247
-980,6946
-884,51843
-762,0575
-649,36523
-610,2905
-568,0939
-485,3119
-364,563
-238,27515
-120,7489
-39,779663
11,782837
40,98816
54,0802
51,159668
41,793823
40,585327
50,253296
61,331177
54,885864
61,331177
66,36658
69,08569
65,3595
80,56641
81,06995
87,11243
96,8811
95,67261
93,15491
87,81738
86,10535
84,695435
81,170654
71,09985
69,58923
70,3949
65,3595
63,446045
54,281616
51,260376
47,634888
37,46338
29,608154
19,638062
15,005493
12,286377
9,970093
6,4453125
7,7545166
7,4523926
-0,9063721
8,761597
11,178589
3,5247803
0,60424805
-4,7332764
2,6184082
9,164429
9,365845
18,630981
33,535767
40,585327
37,765503
43,707275
40,686035
53,67737
42,800903
41,693115
38,671875
27,896118
31,521606
22,357178
24,371338
24,572754
17,321777
10,372925
2,5177002
-1,1077881
3,1219482
3,9276123
-6,0424805
-11,883545
-13,796997
-19,73877
-29,507446
-26,083374
-26,28479
-24,975586
-25,881958
-30,514526
-34,643555
-35,046387
-23,968506
-40,182495
-44,613647
-41,89453
-29,003906
-18,630981
-26,083374
-6,1431885
-2,5177002
6,1431885
11,682129
13,192749
22,357178
20,645142
23,464966
23,565674
22,860718
19,537354
20,343018
7,4523926
6,6467285
2,8198242
-1,8127441
-2,9205322
-16,113281
-3,9276123
-1,1077881
-8,761597
-6,1431885
-12,588501
-24,572754
-32,629395
-31,219482
-42,196655
-42,90161
-43,807983
-43,00232
-40,88745
-50,253296
-49,346924
-44,311523
-39,88037
-45,01648
-41,4917
-34,44214
-26,989746
-14,199829
-8,963013
-3,1219482
-5,6396484
-6,1431885
3,5247803
12,084961
23,968506
26,385498
25,982666
21,450806
20,141602
12,588501
12,084961
18,22815
20,74585
19,436646
14,501953
9,970093
6,9488525
11,581421
5,9417725
-0,70495605
-12,588501
-21,551514
-32,42798
-44,41223
-44,714355
-46,627808
-49,145508
-41,99524
-43,203735
-44,41223
-45,117188
-41,4917
-52,972412
-47,836304
-42,49878
-35,247803
-24,069214
-23,062134
-17,120361
-13,897705
-13,192749
-7,7545166
1,2084961
9,667969
15,408325
18,530273
26,28479
36,557007
33,233643
36,85913
37,36267
39,779663
41,693115
48,03772
46,92993
34,140015
37,36267
37,765503
29,708862
4,9346924
-11,782837
-23,968506
-34,039307
-39,276123
-38,974
-40,98816
-46,02356
-58,309937
-70,79773
-73,31543
-77,24304
-64,151
-65,05737
-47,53418
-43,807983
-30,212402
-26,989746
-21,954346
-15,811157
-7,9559326
-5,8410645
-5,4382324
-7,6538086
-8,056641
-9,164429
-12,387085
-8,862305
-3,7261963
-4,7332764
-13,998413
-21,652222
-21,853638
-20,645142
-11,178589
6,5460205
5,8410645
14,804077
12,487793
17,120361
17,926025
12,890625
6,1431885
-2,9205322
0,50354004
-6,7474365
-20,443726
-29,003906
-35,046387
-34,240723
-37,664795
-38,87329
-37,86621
-42,90161
-43,00232
-44,41223
-40,786743
-25,680542
-15,609741
-11,883545
0,70495605
5,3375244
12,286377
14,199829
25,378418
22,76001
27,896118
26,385498
23,162842
17,019653
15,206909
7,7545166
0,70495605
4,2297363
7,1502686
0,9063721
-5,7403564
-9,164429
-14,804077
-6,7474365
-16,314697
-21,75293
-26,28479
-31,924438
-35,751343
-38,168335
-44,110107
-44,613647
-50,454712
-44,311523
-35,95276
-27,090454
-17,22107
-12,387085
-11,279297
0,50354004
6,2438965
11,279297
8,862305
15,307617
16,314697
21,148682
20,846558
21,24939
29,205322
21,24939
24,975586
23,968506
24,27063
23,565674
18,429565
18,328857
6,9488525
13,192749
8,761597
2,5177002
1,7120361
0,30212402
-2,7191162
-6,5460205
-10,372925
-6,4453125
-13,192749
-22,558594
-29,708862
-32,125854
-34,94568
-38,269043
-50,152588
-44,51294
-46,92993
-41,39099
-41,4917
-39,578247
-38,671875
-36,35559
-31,723022
-17,623901
-6,1431885
-11,782837
-4,3304443
3,8269043
8,963013
15,206909
23,26355
22,76001
22,558594
13,595581
13,192749
12,890625
16,516113
10,473633
9,164429
-2,4169922
5,5389404
0,70495605
0,9063721
-9,164429
-7,7545166
-5,7403564
-5,7403564
-12,084961
-22,76001
-27,191162
-28,29895
-30,212402
-25,076294
-24,874878
-22,457886
-17,321777
-13,192749
-13,796997
-20,040894
-27,090454
-35,046387
-28,198242
-31,32019
-12,991333
-5,7403564
0,9063721
0,40283203
-5,9417725
8,056641
15,005493
8,358765
14,904785
18,630981
19,436646
12,387085
8,963013
16,818237
12,689209
8,056641
-1,5106201
0,60424805
-7,3516846
-7,9559326
-5,3375244
-7,8552246
-0,30212402
-6,7474365
-11,077881
-18,630981
-21,652222
-34,039307
-25,982666
-30,514526
-32,730103
-39,276123
-40,786743
-28,903198
-31,924438
-26,78833
-33,737183
-27,090454
-27,79541
-28,701782
-19,23523
-14,401245
2,2155762
1,8127441
7,1502686
13,595581
8,258057
10,372925
19,940186
15,408325
17,72461
21,954346
13,796997
17,019653
17,825317
18,933105
19,033813
22,860718
19,73877
13,696289
15,005493
18,026733
12,890625
5,9417725
-1,5106201
-4,1290283
-8,963013
-17,321777
-12,588501
-24,169922
-34,542847
-25,982666
-23,464966
-23,26355
-29,708862
-24,069214
-28,903198
-34,44214
-34,240723
-28,097534
-14,401245
-7,5531006
-1,5106201
9,970093
11,984253
29,30603
17,321777
18,630981
22,25647
12,890625
25,378418
18,933105
18,429565
14,199829
10,171509
3,6254883
1,7120361
-7,7545166
-8,459473
-8,056641
-8,358765
-0,9063721
2,1148682
-2,8198242
-5,5389404
-4,0283203
-4,9346924
-17,623901
-23,464966
-23,76709
-17,120361
-15,307617
-15,106201
-12,789917
-11,178589
-16,314697
-17,523193
-13,796997
-5,1361084
1,8127441
12,487793
28,29895
17,019653
15,609741
19,436646
20,343018
25,479126
26,889038
27,493286
26,184082
24,673462
23,867798
32,528687
31,82373
26,486206
21,450806
19,436646
24,77417
15,911865
13,092041
0,80566406
-1,3092041
-2,6184082
-2,3162842
-12,185669
-9,667969
-11,581421
-24,874878
-30,31311
-27,090454
-33,535767
-25,680542
-21,450806
-9,567261
-13,595581
-15,408325
-12,789917
-1,8127441
2,9205322
15,408325
25,78125
22,961426
24,874878
29,507446
35,44922
40,182495
48,843384
50,656128
61,23047
61,532593
52,871704
46,42639
37,060547
32,83081
25,479126
10,272217
5,9417725
1,3092041
-10,775757
-23,565674
-33,737183
-47,232056
-38,671875
-31,420898
-40,786743
-49,246216
-51,05896
-57,60498
-68,07861
-59,61914
-51,05896
-48,239136
-43,00232
-46,02356
-49,649048
-52,871704
-41,592407
-39,779663
-42,800903
-27,191162
-16,516113
-13,192749
-2,1148682
-5,8410645
5,1361084
12,286377
23,867798
24,472046
25,076294
24,874878
26,184082
25,076294
27,29187
28,097534
26,083374
26,385498
19,033813
17,623901
14,300537
10,171509
8,560181
9,063721
-5,2368164
2,6184082
1,1077881
-4,5318604
-4,3304443
-12,991333
-18,429565
-15,307617
-22,357178
-26,78833
-29,708862
-27,896118
-22,055054
-27,191162
-26,184082
-26,78833
-25,076294
-17,22107
-3,5247803
4,8339844
13,092041
16,113281
20,645142
19,033813
21,350098
29,507446
40,585327
39,37683
31,924438
34,34143
31,32019
26,989746
19,537354
24,371338
17,72461
21,047974
12,387085
7,3516846
11,682129
12,991333
11,883545
13,494873
17,926025
9,869385
5,8410645
5,5389404
0,80566406
6,3446045
-0,60424805
-0,10070801
-6,4453125
-6,5460205
-8,258057
-13,595581
-5,1361084
-10,775757
-14,602661
-10,171509
2,4169922
10,070801
12,991333
10,775757
15,710449
19,839478
12,890625
21,148682
26,687622
33,43506
36,758423
33,737183
28,29895
28,500366
39,578247
24,472046
24,874878
20,040894
14,501953
5,4382324
2,1148682
2,8198242
0,50354004
1,9134521
-4,1290283
-11,178589
-13,192749
-19,134521
-24,472046
-20,24231
-18,026733
-26,083374
-24,673462
-18,429565
-20,645142
-20,443726
-23,062134
-32,125854
-23,26355
-12,689209
-13,394165
-9,869385
-5,3375244
2,5177002
7,9559326
16,21399
18,127441
23,26355
20,141602
16,818237
16,21399
17,019653
17,321777
16,918945
9,768677
13,092041
17,825317
16,516113
11,984253
4,5318604
4,2297363
3,9276123
7,5531006
8,963013
10,070801
3,7261963
-7,0495605
-9,365845
-18,429565
-21,350098
-27,090454
-23,867798
-25,27771
-21,853638
-25,076294
-21,75293
-28,500366
-25,27771
-37,261963
-22,25647
-11,581421
-8,560181
5,7403564
3,6254883
9,164429
12,689209
15,005493
12,084961
17,825317
14,401245
16,113281
16,415405
15,408325
12,991333
5,9417725
6,9488525
1,7120361
7,4523926
2,2155762
-7,5531006
-5,3375244
-7,8552246
5,5389404
4,1290283
0,50354004
-3,8269043
-11,984253
-18,832397
-29,003906
-26,385498
-18,832397
-11,480713
-4,5318604
0,70495605
2,7191162
-2,6184082
-0,9063721
-3,9276123
-3,4240723
-7,4523926
-4,8339844
-3,1219482
-1,3092041
4,2297363
2,9205322
15,206909
17,825317
19,537354
26,78833
25,881958
33,636475
33,032227
26,385498
23,464966
24,874878
20,947266
21,148682
16,918945
7,7545166
6,9488525
-0,40283203
0,50354004
4,2297363
-1,5106201
-2,7191162
-4,4311523
-9,970093
-16,415405
-8,258057
-21,551514
-18,630981
-26,889038
-23,26355
-24,874878
-27,493286
-32,42798
-29,910278
-30,212402
-28,198242
-34,94568
-14,904785
-10,675049
-3,3233643
-4,5318604
-3,8269043
2,9205322
6,7474365
7,2509766
8,963013
14,300537
23,162842
17,019653
20,846558
10,675049
16,516113
15,509033
8,157349
10,675049
7,6538086
-5,1361084
6,6467285
-2,2155762
0,9063721
1,3092041
-5,9417725
-15,609741
-18,530273
-22,76001
-32,42798
-30,917358
-28,80249
-38,571167
-36,35559
-32,025146
-29,30603
-30,111694
-29,30603
-28,29895
-30,212402
-22,76001
-23,364258
-10,272217
-5,9417725
-0,30212402
2,8198242
11,581421
16,71753
23,364258
22,961426
33,132935
31,420898
30,413818
19,940186
21,954346
23,26355
23,565674
16,71753
22,25647
18,429565
6,8481445
-1,0070801
2,6184082
2,9205322
6,1431885
-11,178589
-12,084961
-15,408325
-11,682129
-20,24231
-29,910278
-31,420898
-31,219482
-32,730103
-35,85205
-34,744263
-39,175415
-38,269043
-33,33435
-35,147095
-32,730103
-20,846558
-10,070801
-11,984253
-2,7191162
-0,40283203
-4,1290283
12,588501
22,860718
28,29895
36,657715
39,88037
42,095947
41,89453
40,786743
30,615234
37,765503
33,535767
24,673462
18,026733
14,099121
10,171509
5,0354004
0,9063721
9,365845
-4,0283203
-5,0354004
-15,609741
-19,23523
-23,062134
-24,371338
-30,917358
-36,557007
-37,46338
-39,98108
-44,815063
-53,17383
-46,5271
-46,42639
-32,025146
-37,060547
-16,818237
-3,7261963
0,50354004
14,199829
10,775757
18,630981
22,558594
29,608154
28,29895
21,652222
16,113281
19,436646
22,055054
24,069214
26,889038
26,486206
26,083374
15,005493
8,560181
10,775757
-1,5106201
-3,8269043
0,20141602
-3,3233643
-4,8339844
-10,473633
-10,977173
-12,991333
-20,443726
-12,185669
-16,818237
-18,429565
-30,917358
-33,233643
-37,765503
-43,304443
-40,686035
-39,276123
-37,564087
-27,090454
-7,9559326
-4,6325684
-7,1502686
5,1361084
15,811157
23,364258
33,233643
37,564087
37,46338
33,43506
37,46338
32,226562
30,31311
27,392578
28,500366
21,450806
13,192749
17,120361
12,185669
8,862305
0,50354004
4,6325684
-5,4382324
2,3162842
2,7191162
-6,3446045
-15,509033
-24,069214
-23,968506
-36,053467
-26,385498
-26,486206
-31,420898
-34,140015
-34,643555
-37,765503
-38,36975
-36,557007
-37,664795
-26,184082
-15,206909
-12,789917
-6,7474365
-2,5177002
7,5531006
10,876465
15,811157
20,645142
20,74585
20,141602
21,047974
24,169922
24,371338
17,019653
13,595581
13,897705
13,796997
11,782837
15,408325
17,422485
21,24939
15,307617
17,825317
15,206909
4,2297363
0,20141602
-2,2155762
-5,1361084
-7,9559326
-13,998413
-13,394165
-15,106201
-16,21399
-19,335938
-25,27771
-32,42798
-33,737183
-41,189575
-38,671875
-40,786743
-34,039307
-38,269043
-27,29187
-17,523193
-18,22815
-8,963013
5,5389404
10,876465
10,675049
16,415405
21,047974
19,033813
14,501953
16,113281
15,509033
15,609741
18,832397
16,818237
10,977173
13,998413
5,4382324
5,8410645
9,365845
19,033813
-2,5177002
-6,9488525
-12,185669
-13,897705
-22,25647
-23,162842
-24,069214
-34,34143
-33,535767
-30,111694
-29,910278
-28,903198
-33,737183
-25,27771
-33,43506
-23,464966
-23,666382
-10,675049
-11,077881
-7,0495605
2,3162842
6,5460205
4,9346924
12,689209
15,206909
9,970093
18,832397
21,047974
14,300537
13,494873
7,8552246
8,157349
11,984253
6,4453125
6,9488525
3,7261963
-7,8552246
-7,5531006
-10,473633
-7,8552246
-10,372925
-15,408325
-12,890625
-10,775757
-17,623901
-13,394165
-21,954346
-18,630981
-22,155762
-27,191162
-29,30603
-24,77417
-40,88745
-37,664795
-41,39099
-39,276123
-27,694702
-12,286377
-4,1290283
8,761597
5,1361084
9,265137
16,21399
14,199829
30,514526
29,104614
28,198242
40,283203
38,772583
39,98108
40,48462
37,46338
35,751343
23,76709
18,127441
15,206909
6,8481445
10,372925
9,869385
12,185669
4,4311523
-1,5106201
4,6325684
-4,3304443
-13,192749
-10,372925
-18,933105
-18,933105
-32,125854
-31,118774
-24,069214
-29,910278
-29,104614
-36,557007
-33,33435
-28,500366
-20,846558
-16,918945
-14,199829
-9,768677
-5,1361084
-0,50354004
11,984253
11,480713
14,904785
33,43506
27,694702
33,132935
30,917358
29,30603
28,500366
25,881958
25,680542
21,350098
12,387085
8,560181
7,7545166
6,9488525
1,8127441
7,7545166
1,3092041
-0,10070801
-8,761597
-11,581421
-16,113281
-18,328857
-24,975586
-28,500366
-30,31311
-29,708862
-25,27771
-25,579834
-26,385498
-28,80249
-26,486206
-27,996826
-19,537354
-9,567261
-6,4453125
3,0212402
7,5531006
2,8198242
12,185669
13,293457
24,472046
27,090454
23,162842
19,839478
20,544434
23,968506
21,75293
20,343018
12,588501
11,682129
6,5460205
5,1361084
0,50354004
0,20141602
-2,9205322
-7,5531006
-14,904785
-15,106201
-14,904785
-13,394165
-26,083374
-18,026733
-24,069214
-29,30603
-29,80957
-27,090454
-19,134521
-24,77417
-31,723022
-35,046387
-30,111694
-29,003906
-19,335938
-10,574341
-7,7545166
0,9063721
5,3375244
10,171509
17,72461
15,005493
21,954346
22,76001
22,860718
28,29895
17,623901
19,436646
17,623901
17,22107
17,120361
11,883545
7,4523926
1,1077881
4,2297363
0,9063721
-1,0070801
-5,5389404
0,50354004
-15,408325
-22,558594
-32,42798
-34,744263
-38,47046
-35,95276
-35,751343
-38,36975
-35,34851
-33,535767
-39,37683
-33,33435
-29,507446
-32,42798
-24,77417
-20,846558
-0,50354004
-0,50354004
9,768677
16,818237
9,869385
17,120361
21,350098
27,090454
24,472046
24,975586
28,399658
20,846558
14,300537
12,185669
7,0495605
1,3092041
-1,0070801
-2,1148682
3,4240723
0,10070801
-9,466553
-4,2297363
-5,5389404
-5,7403564
-9,466553
-15,005493
-10,775757
-3,7261963
-7,8552246
1,3092041
-0,40283203
-5,1361084
-1,1077881
-12,487793
-16,818237
-14,804077
-33,132935
-36,35559
-41,088867
-33,132935
-15,106201
-5,8410645
-2,7191162
1,0070801
10,574341
33,737183
28,500366
34,84497
37,161255
41,89453
44,41223
45,217896
45,721436
35,751343
30,715942
26,385498
16,516113
23,062134
8,157349
8,459473
-2,0141602
9,768677
5,0354004
8,358765
4,7332764
-5,8410645
-9,567261
-11,782837
-20,24231
-23,76709
-34,542847
-30,111694
-32,125854
-33,233643
-26,486206
-36,154175
-34,240723
-32,32727
-32,730103
-25,076294
-20,343018
-5,6396484
-7,0495605
-5,0354004
3,7261963
0,9063721
8,963013
8,056641
8,862305
5,5389404
13,998413
4,3304443
10,372925
12,588501
16,616821
15,206909
15,106201
21,350098
20,443726
11,984253
10,473633
13,796997
20,343018
14,199829
4,1290283
1,3092041
-2,8198242
-13,192749
-17,422485
-29,910278
-30,81665
-31,622314
-26,687622
-26,486206
-36,35559
-34,34143
-28,097534
-33,535767
-24,371338
-9,063721
-5,5389404
-6,2438965
-3,7261963
3,5247803
3,2226562
12,890625
10,977173
13,897705
18,328857
18,22815
22,76001
16,21399
17,321777
23,26355
13,595581
8,358765
9,063721
8,761597
7,1502686
3,9276123
3,1219482
10,775757
13,092041
12,185669
0,9063721
1,0070801
-4,1290283
-9,365845
-6,5460205
-13,897705
-16,314697
-18,73169
-23,666382
-20,343018
-26,586914
-25,378418
-16,71753
-26,889038
-30,514526
-17,523193
-6,2438965
-3,9276123
-6,7474365
5,9417725
5,9417725
22,155762
14,199829
18,630981
21,450806
25,479126
25,378418
17,019653
23,565674
21,551514
21,652222
15,811157
22,25647
19,335938
14,804077
6,9488525
0,9063721
-0,50354004
-10,473633
-13,192749
-14,804077
-24,874878
-25,27771
-32,730103
-37,161255
-47,634888
-48,239136
-48,54126
-32,83081
-26,78833
-12,084961
-9,869385
-7,8552246
-6,9488525
-2,3162842
-0,9063721
5,8410645
5,4382324
-0,10070801
3,3233643
3,5247803
14,199829
17,019653
21,350098
33,83789
38,168335
44,210815
46,728516
42,700195
37,36267
28,29895
34,34143
27,191162
21,047974
12,286377
10,372925
-2,8198242
-1,2084961
-13,394165
1,0070801
2,9205322
-9,869385
-13,394165
-12,789917
-26,385498
-25,982666
-31,219482
-30,514526
-35,44922
-31,924438
-41,39099
-37,564087
-38,87329
-39,578247
-37,96692
-32,125854
-19,23523
-22,76001
-11,279297
-8,560181
-4,3304443
3,2226562
2,2155762
11,782837
17,825317
14,703369
30,514526
22,25647
22,558594
26,184082
20,74585
16,21399
14,804077
17,120361
15,509033
5,3375244
8,459473
8,560181
6,5460205
4,9346924
-4,0283203
-12,286377
-12,185669
-25,479126
-17,623901
-14,904785
-28,097534
-26,28479
-33,33435
-28,097534
-34,039307
-39,578247
-37,46338
-37,564087
-35,34851
-21,652222
-11,984253
-2,5177002
-0,10070801
-2,0141602
0,50354004
12,991333
10,272217
16,818237
15,408325
11,782837
16,415405
19,940186
13,998413
12,588501
11,178589
2,2155762
5,5389404
4,8339844
-3,9276123
-4,8339844
-9,063721
-2,6184082
-7,7545166
-9,567261
-8,560181
-12,387085
-15,911865
-27,493286
-20,645142
-29,608154
-22,457886
-21,047974
-26,184082
-23,464966
-16,415405
-25,579834
-23,867798
-22,357178
-21,652222
-19,73877
-8,963013
-7,9559326
2,0141602
2,3162842
2,7191162
0,70495605
4,1290283
16,415405
10,473633
13,595581
17,22107
23,867798
22,659302
20,141602
18,429565
16,113281
11,480713
18,73169
6,7474365
3,2226562
-6,0424805
-0,70495605
-0,80566406
-0,9063721
-4,9346924
-10,473633
-15,710449
-22,055054
-28,097534
-27,694702
-23,565674
-23,666382
-33,233643
-26,687622
-26,083374
-30,010986
-31,723022
-31,32019
-26,486206
-19,033813
-5,4382324
-6,1431885
-1,0070801
3,3233643
0,40283203
4,5318604
16,113281
17,120361
25,076294
20,24231
16,516113
18,328857
15,710449
21,047974
21,551514
13,595581
9,768677
9,164429
10,574341
3,5247803
0,10070801
7,1502686
5,2368164
6,5460205
-0,60424805
-4,3304443
-6,9488525
-24,572754
-17,019653
-19,23523
-21,24939
-30,413818
-25,982666
-26,687622
-34,34143
-28,903198
-20,24231
-24,472046
-24,874878
-19,638062
-7,3516846
-8,862305
-3,6254883
3,8269043
8,358765
13,092041
30,514526
25,378418
25,982666
28,80249
33,132935
30,31311
34,34143
25,479126
30,111694
30,010986
40,38391
28,500366
22,961426
14,703369
13,897705
13,595581
17,825317
7,4523926
1,4099121
-1,2084961
-15,408325
-17,120361
-22,357178
-23,162842
-23,565674
-30,31311
-34,140015
-21,853638
-25,27771
-31,420898
-36,35559
-27,29187
-25,177002
-16,314697
-12,588501
-5,8410645
-1,5106201
5,6396484
5,8410645
3,3233643
13,394165
21,148682
18,630981
23,968506
25,982666
24,572754
25,78125
24,069214
24,77417
18,429565
11,380005
14,703369
13,192749
5,2368164
0,50354004
0,60424805
12,890625
-2,4169922
-3,5247803
-8,862305
-13,394165
-10,272217
-11,178589
-23,062134
-29,708862
-35,147095
-29,708862
-31,723022
-39,779663
-36,35559
-39,578247
-36,85913
-32,226562
-31,420898
-11,682129
-8,761597
-2,9205322
6,9488525
8,258057
13,998413
21,652222
21,954346
21,954346
19,335938
16,818237
18,026733
14,501953
14,703369
10,775757
14,300537
12,185669
14,904785
8,459473
2,8198242
-8,056641
-3,4240723
2,8198242
3,9276123
-5,6396484
-9,466553
-8,862305
-18,026733
-17,926025
-20,544434
-26,28479
-26,184082
-32,32727
-25,27771
-28,80249
-19,033813
-20,443726
-34,744263
-35,147095
-27,694702
-12,588501
-4,5318604
4,7332764
4,6325684
9,265137
4,4311523
1,9134521
13,394165
16,616821
10,977173
15,811157
15,206909
25,680542
21,148682
18,22815
14,501953
16,516113
20,443726
22,860718
26,586914
24,673462
28,80249
31,723022
21,954346
22,055054
12,991333
10,977173
-4,5318604
-10,977173
-22,457886
-20,443726
-29,30603
-32,025146
-25,680542
-29,708862
-32,226562
-32,125854
-34,744263
-28,80249
-24,77417
-11,682129
-3,5247803
-0,20141602
9,265137
8,560181
6,8481445
21,047974
19,638062
40,585327
23,26355
27,090454
24,27063
22,25647
27,996826
28,903198
24,472046
17,019653
21,450806
13,998413
10,372925
7,1502686
5,6396484
1,7120361
-1,4099121
0,70495605
-4,1290283
-8,963013
-16,21399
-16,516113
-18,630981
-24,472046
-24,069214
-25,579834
-27,090454
-26,28479
-27,593994
-25,076294
-23,062134
-28,701782
-25,881958
-7,6538086
-4,7332764
-7,2509766
-6,1431885
1,0070801
6,1431885
15,509033
19,033813
22,25647
23,968506
22,25647
24,673462
21,24939
25,982666
21,954346
20,040894
12,588501
14,804077
9,164429
6,2438965
2,9205322
2,3162842
1,5106201
-4,3304443
-4,3304443
-8,963013
-11,581421
-23,76709
-22,860718
-29,608154
-31,82373
-32,83081
-34,643555
-29,708862
-36,85913
-36,557007
-27,694702
-37,96692
-24,572754
-17,72461
-4,2297363
-1,1077881
-2,9205322
7,5531006
4,5318604
7,6538086
12,991333
13,595581
22,860718
26,28479
27,493286
28,500366
30,715942
25,479126
26,78833
27,090454
18,429565
18,933105
4,9346924
4,2297363
-4,6325684
-3,8269043
-3,4240723
-2,7191162
-7,8552246
-6,7474365
-12,991333
-7,1502686
-22,055054
-17,120361
-23,464966
-26,083374
-18,127441
-23,26355
-27,493286
-28,097534
-25,881958
-28,097534
-29,910278
-23,867798
-12,588501
-10,977173
-2,5177002
-2,7191162
-1,1077881
9,063721
12,084961
18,630981
25,680542
15,811157
19,940186
29,910278
20,040894
13,998413
17,926025
14,401245
12,890625
15,710449
16,616821
12,185669
6,4453125
5,6396484
0,20141602
4,4311523
1,6113281
-6,0424805
-11,984253
-14,904785
-18,73169
-26,889038
-22,457886
-27,694702
-29,708862
-36,85913
-33,33435
-33,132935
-39,98108
-36,35559
-39,074707
-34,34143
-10,574341
-16,21399
-6,3446045
-2,1148682
12,487793
23,364258
36,557007
37,765503
38,87329
38,36975
40,48462
34,34143
26,687622
20,343018
22,659302
26,385498
25,177002
20,645142
14,602661
8,056641
5,1361084
2,9205322
-1,7120361
-10,473633
-10,977173
-13,998413
-16,415405
-19,940186
-24,975586
-26,083374
-21,652222
-22,25647
-14,804077
-19,638062
-10,574341
-13,796997
-18,328857
-18,429565
-19,033813
-12,185669
-3,3233643
-2,8198242
6,0424805
4,5318604
9,869385
8,258057
20,141602
21,24939
22,961426
40,38391
30,31311
29,406738
27,392578
23,062134
24,069214
20,947266
17,22107
14,804077
5,7403564
5,3375244
-0,50354004
-0,10070801
1,3092041
-3,6254883
-0,70495605
-9,567261
-14,300537
-23,464966
-23,867798
-26,083374
-31,32019
-32,42798
-32,226562
-32,629395
-36,154175
-34,643555
-24,874878
-27,79541
-30,917358
-24,874878
-10,473633
4,4311523
0,70495605
-4,2297363
2,3162842
8,761597
15,005493
7,1502686
16,616821
16,113281
15,206909
20,443726
28,701782
23,062134
21,047974
17,422485
21,148682
17,926025
15,911865
7,2509766
-0,10070801
-2,3162842
4,2297363
1,7120361
-2,7191162
-10,272217
-14,300537
-12,890625
-12,890625
-18,22815
-23,364258
-29,406738
-28,399658
-26,486206
-34,94568
-32,025146
-33,9386
-40,786743
-35,751343
-31,521606
-19,839478
-10,775757
-10,977173
-0,40283203
1,6113281
8,157349
8,157349
14,602661
18,127441
12,185669
14,199829
11,380005
10,574341
8,862305
0,40283203
-7,4523926
-6,2438965
-5,9417725
-4,3304443
-13,394165
-4,7332764
-11,077881
-5,3375244
-3,2226562
-10,171509
-12,789917
-13,796997
-16,71753
-9,567261
1,0070801
2,9205322
-0,70495605
0,9063721
-5,7403564
-6,1431885
-3,6254883
-2,1148682
-9,466553
-16,314697
-14,501953
-3,4240723
5,0354004
9,667969
12,991333
11,782837
11,682129
13,595581
14,099121
14,904785
21,350098
12,991333
19,940186
23,968506
22,055054
18,630981
20,947266
17,422485
13,192749
11,682129
5,5389404
2,1148682
-3,4240723
0,70495605
-3,5247803
-2,8198242
-9,265137
-10,372925
-22,357178
-26,385498
-31,32019
-34,84497
-40,88745
-38,671875
-32,730103
-28,601074
-28,500366
-25,680542
-30,212402
-27,191162
-22,860718
-16,113281
-5,1361084
-17,120361
-2,0141602
-2,4169922
5,5389404
13,293457
12,789917
19,033813
16,415405
22,357178
22,357178
14,804077
23,26355
14,501953
14,904785
15,811157
11,782837
11,077881
5,4382324
7,6538086
4,6325684
2,3162842
-1,5106201
-4,0283203
-10,171509
-20,846558
-18,127441
-31,118774
-32,528687
-33,233643
-33,43506
-35,34851
-26,486206
-28,29895
-29,30603
-34,34143
-35,34851
-33,233643
-27,191162
-26,889038
-14,199829
-5,3375244
-13,192749
-8,358765
11,178589
14,099121
21,75293
22,558594
24,673462
25,479126
23,76709
27,191162
29,708862
19,73877
28,903198
25,479126
16,71753
19,134521
14,099121
6,1431885
0,50354004
3,9276123
7,7545166
6,1431885
-1,6113281
-14,199829
-13,998413
-24,169922
-21,24939
-27,090454
-30,514526
-29,708862
-28,198242
-30,111694
-44,110107
-31,924438
-24,874878
-26,586914
-26,889038
-15,408325
-4,9346924
-7,4523926
2,3162842
4,5318604
5,0354004
6,5460205
10,272217
10,775757
10,574341
9,667969
8,560181
7,3516846
11,380005
-2,5177002
-3,4240723
-2,4169922
-1,1077881
0,30212402
6,2438965
-1,4099121
4,0283203
4,7332764
-1,8127441
-4,7332764
-12,487793
-8,258057
-10,070801
-18,22815
-18,73169
-18,22815
-21,148682
-17,72461
-5,3375244
-3,8269043
-7,3516846
-5,5389404
-11,581421
-6,1431885
-27,493286
-8,963013
-1,0070801
7,7545166
9,063721
13,595581
28,097534
15,206909
19,638062
17,72461
27,896118
26,989746
25,479126
24,673462
16,616821
17,321777
10,574341
15,206909
16,818237
9,567261
6,8481445
0,20141602
-2,7191162
0,20141602
-0,9063721
1,2084961
-9,667969
-9,466553
-14,501953
-21,652222
-29,003906
-31,723022
-27,29187
-39,779663
-41,39099
-38,974
-43,304443
-52,972412
-47,836304
-42,297363
-38,671875
-33,233643
-26,28479
-18,429565
-15,106201
-12,890625
-5,7403564
0,70495605
1,8127441
6,6467285
19,134521
33,132935
38,36975
36,254883
33,032227
38,36975
44,91577
31,118774
23,464966
20,343018
18,127441
11,077881
11,682129
16,516113
14,602661
8,258057
-8,258057
-10,272217
-22,357178
-22,457886
-22,961426
-20,947266
-28,097534
-25,27771
-26,385498
-26,889038
-30,514526
-31,018066
-33,032227
-35,95276
-28,29895
-18,22815
0,80566406
-1,4099121
7,5531006
3,6254883
10,977173
17,019653
16,616821
13,998413
30,81665
31,622314
35,147095
35,751343
26,989746
28,198242
17,22107
18,22815
7,7545166
8,761597
3,3233643
3,2226562
3,7261963
3,7261963
9,667969
-2,2155762
-4,2297363
-8,459473
-12,185669
-21,853638
-26,687622
-29,608154
-30,111694
-31,32019
-35,34851
-30,514526
-40,686035
-37,261963
-36,95984
-35,95276
-38,36975
-35,046387
-22,055054
-16,012573
-7,4523926
-3,1219482
-4,7332764
3,4240723
6,9488525
11,984253
17,523193
13,595581
19,839478
19,033813
11,883545
18,933105
12,084961
6,4453125
3,7261963
3,9276123
11,883545
7,1502686
18,429565
25,579834
21,853638
10,876465
1,1077881
0
2,6184082
-5,2368164
-6,1431885
-10,372925
-14,099121
-17,120361
-19,23523
-18,22815
-14,703369
-18,22815
-22,961426
-22,457886
-20,24231
-15,307617
-9,667969
0
5,6396484
11,178589
9,869385
3,9276123
17,72461
22,055054
24,77417
23,062134
21,148682
27,090454
24,472046
19,537354
23,968506
21,047974
12,890625
5,3375244
7,7545166
2,7191162
-0,50354004
-1,5106201
-6,7474365
-0,60424805
-7,7545166
-13,796997
-16,415405
-21,853638
-36,254883
-32,125854
-33,737183
-40,585327
-41,290283
-34,744263
-36,254883
-37,96692
-30,615234
-26,687622
-19,940186
-14,703369
-8,157349
-8,056641
-7,7545166
-0,70495605
1,8127441
14,099121
9,063721
19,839478
18,429565
22,25647
24,874878
18,22815
36,4563
23,76709
20,040894
21,148682
9,466553
4,8339844
2,7191162
-1,5106201
-5,5389404
-6,8481445
1,0070801
-2,5177002
-7,8552246
-10,977173
-22,055054
-29,406738
-33,535767
-34,84497
-28,701782
-35,751343
-37,060547
-19,537354
-27,392578
-32,730103
-28,500366
-23,867798
-22,055054
-7,7545166
3,9276123
2,5177002
-0,10070801
12,487793
23,464966
21,047974
22,961426
21,853638
23,26355
24,975586
30,81665
29,910278
28,198242
27,29187
26,486206
17,019653
16,616821
16,21399
2,5177002
3,2226562
-0,30212402
-1,3092041
-13,696289
-9,365845
-20,040894
-21,75293
-26,989746
-26,385498
-24,169922
-22,558594
-22,659302
-24,069214
-28,399658
-33,233643
-39,779663
-39,37683
-38,87329
-34,140015
-32,125854
-18,22815
-9,265137
0,50354004
8,761597
11,782837
17,825317
19,638062
22,357178
29,205322
34,44214
33,535767
32,93152
34,84497
28,903198
19,033813
17,825317
18,832397
8,560181
20,443726
12,890625
6,4453125
2,7191162
8,963013
7,6538086
9,365845
6,4453125
-5,3375244
-12,588501
-15,307617
-14,804077
-20,443726
-25,177002
-27,996826
-27,694702
-29,910278
-38,974
-39,37683
-42,095947
-44,51294
-36,35559
-32,42798
-17,019653
-10,473633
-3,9276123
1,3092041
3,8269043
18,933105
15,307617
10,574341
18,026733
13,998413
19,839478
19,839478
13,494873
9,466553
14,099121
11,380005
9,164429
11,883545
2,4169922
4,8339844
-5,8410645
-4,6325684
-5,5389404
-0,50354004
-10,171509
-11,581421
-12,991333
-15,206909
-23,666382
-15,811157
-27,996826
-31,622314
-29,003906
-31,420898
-31,521606
-31,82373
-26,889038
-28,29895
-25,076294
-25,27771
-5,4382324
-2,1148682
-9,063721
1,6113281
7,0495605
0,80566406
10,372925
13,595581
17,422485
20,846558
20,040894
25,881958
24,572754
23,666382
12,588501
4,1290283
0,9063721
1,1077881
-0,70495605
-8,560181
-11,077881
-9,164429
-13,998413
-19,23523
-16,616821
-20,846558
-22,558594
-23,968506
-21,551514
-19,23523
-17,019653
-23,26355
-5,5389404
-19,839478
-18,630981
-10,775757
-5,7403564
-3,4240723
-2,7191162
-3,0212402
6,5460205
6,4453125
13,595581
12,689209
15,005493
15,609741
22,860718
26,586914
30,010986
33,233643
22,558594
29,30603
30,31311
27,493286
22,659302
14,401245
22,860718
14,804077
7,3516846
8,761597
3,2226562
4,7332764
2,0141602
0,60424805
-5,9417725
-10,070801
-15,408325
-21,954346
-26,687622
-34,94568
-25,076294
-37,46338
-44,0094
-51,05896
-51,05896
-42,49878
-42,095947
-55,08728
-49,246216
-30,111694
-6,0424805
-2,5177002
13,595581
22,25647
29,104614
30,615234
36,758423
38,36975
35,650635
42,39807
46,829224
49,246216
51,663208
40,081787
34,039307
22,25647
18,73169
23,867798
19,839478
11,480713
3,7261963
8,459473
7,1502686
7,0495605
7,3516846
9,567261
-10,272217
-12,487793
-27,896118
-30,413818
-23,867798
-28,500366
-32,42798
-34,140015
-40,686035
-41,592407
-31,924438
-29,406738
-45,318604
-28,198242
-20,040894
-13,394165
-9,869385
-4,5318604
-8,963013
2,9205322
4,7332764
8,660889
8,761597
4,9346924
15,408325
23,062134
23,76709
29,910278
31,118774
33,33435
34,744263
31,521606
23,968506
18,73169
11,581421
16,616821
15,811157
6,5460205
-1,3092041
-14,199829
-17,623901
-24,472046
-25,680542
-27,493286
-24,975586
-32,528687
-28,29895
-32,226562
-31,32019
-37,36267
-38,671875
-34,542847
-33,132935
-28,80249
-18,832397
-5,5389404
1,3092041
0,80566406
0,9063721
3,5247803
8,963013
9,164429
21,954346
16,415405
18,22815
25,881958
15,710449
21,148682
19,335938
15,206909
16,818237
7,4523926
5,5389404
-5,1361084
0
-3,5247803
7,4523926
3,8269043
-5,7403564
-8,358765
-13,394165
-18,73169
-19,335938
-22,457886
-20,947266
-26,083374
-27,694702
-33,132935
-38,168335
-33,737183
-31,521606
-31,521606
-29,708862
-23,26355
-10,775757
-1,4099121
-0,70495605
0,70495605
7,3516846
16,818237
22,155762
18,026733
12,890625
19,033813
17,22107
17,120361
11,984253
15,811157
11,581421
11,480713
8,963013
2,4169922
-5,9417725
0,20141602
-3,3233643
-5,1361084
-3,7261963
-5,3375244
-3,4240723
-9,265137
-19,940186
-22,155762
-29,30603
-15,408325
-22,055054
-23,76709
-17,825317
-10,775757
-20,74585
-10,473633
-14,703369
-22,860718
-26,889038
-13,595581
-5,7403564
-1,5106201
3,0212402
5,1361084
22,860718
18,328857
24,371338
21,954346
25,479126
22,558594
31,82373
31,82373
29,708862
24,975586
23,968506
25,177002
24,169922
19,73877
19,335938
16,113281
10,070801
12,890625
12,286377
-1,2084961
-7,5531006
-8,157349
-12,890625
-18,328857
-4,0283203
-16,012573
-16,012573
-23,76709
-24,069214
-22,961426
-32,93152
-35,046387
-32,025146
-27,896118
-33,233643
-27,191162
-27,996826
-14,300537
-12,588501
-3,3233643
5,7403564
13,998413
14,501953
22,25647
23,464966
20,544434
26,28479
31,723022
29,205322
25,78125
20,443726
19,537354
15,811157
13,394165
9,164429
8,963013
-0,9063721
-23,76709
-29,910278
-41,592407
-50,756836
-58,71277
-52,871704
-55,59082
-46,829224
-44,613647
-47,53418
-43,707275
-39,98108
-36,35559
-37,060547
-37,86621
-27,694702
-29,507446
-22,860718
-14,401245
-6,6467285
5,4382324
17,22107
25,27771
31,32019
38,87329
40,38391
42,800903
42,599487
48,138428
34,542847
36,85913
37,161255
24,27063
37,86621
41,290283
43,304443
50,454712
53,979492
51,461792
44,815063
37,564087
30,715942
35,147095
17,523193
4,0283203
-4,8339844
-28,80249
-44,0094
-43,606567
-50,656128
-35,95276
-35,95276
-40,686035
-45,620728
-53,375244
-55,892944
-60,12268
-59,014893
-51,05896
-42,700195
-31,420898
-46,02356
-63,74817
-70,79773
-63,64746
-47,03064
-31,723022
-22,055054
-12,487793
14,501953
30,111694
43,203735
45,822144
49,246216
57,20215
58,007812
63,345337
52,468872
54,382324
55,792236
66,26587
80,36499
76,84021
79,055786
102,319336
145,9259
138,57422
122,15881
87,51526
46,728516
-2,0141602
-20,947266
-30,514526
-47,53418
-63,043213
-111,68518
-144,41528
-174,7284
-176,44043
-176,44043
-180,87158
-166,77246
-133,53882
-115,91492
-89,83154
-53,07312
-13,494873
19,033813
52,267456
59,317017
34,542847
24,673462
2,7191162
13,394165
36,35559
43,203735
31,32019
27,694702
26,889038
34,94568
45,721436
53,878784
54,885864
47,53418
38,87329
31,219482
29,708862
22,961426
29,708862
43,00232
52,670288
58,71277
54,483032
43,606567
34,84497
40,38391
58,61206
113,39722
148,84644
156,50024
80,667114
-25,881958
-73,91968
-67,474365
-64,75525
-77,34375
-104,333496
-149,85352
-210,37903
-239,38293
-233,74329
-232,53479
-221,65833
-200,10681
-184,8999
-149,7528
-103,02429
-62,64038
-27,79541
-8,258057
6,5460205
23,464966
54,58374
114,20288
160,42786
157,30591
131,02112
103,326416
89,63013
72,30835
52,468872
41,088867
24,77417
18,127441
11,178589
1,7120361
7,4523926
14,703369
32,528687
44,613647
85,60181
114,90784
122,15881
114,10217
67,07153
26,083374
-1,1077881
-20,24231
-38,671875
-55,892944
-80,26428
-89,52942
-59,21631
-9,164429
22,961426
31,118774
19,73877
14,300537
12,286377
-14,300537
-24,874878
-17,019653
-5,1361084
14,703369
27,090454
49,54834
70,3949
76,538086
69,38782
51,965332
48,239136
32,32727
17,72461
-0,20141602
-19,033813
-48,239136
-65,25879
-79,660034
-85,5011
-76,538086
-53,878784
-35,247803
-10,574341
-4,3304443
17,72461
52,670288
82,177734
111,78589
114,70642
66,16516
-70,69702
-158,4137
-198,99902
-228,50647
-248,14453
-275,3357
-273,52295
-244,21692
-197,18628
-166,36963
-152,06909
-93,15491
-31,622314
26,687622
73,21472
99,90234
113,09509
111,18164
100,808716
94,86694
108,76465
158,31299
195,17212
193,05725
171,30432
112,994385
91,14075
87,11243
83,48694
84,89685
88,723755
81,170654
74,2218
76,7395
60,827637
28,701782
6,7474365
-19,537354
-40,283203
-50,857544
-61,532593
-72,10693
-83,78906
-94,96765
-72,9126
-55,08728
-33,737183
-28,198242
-25,076294
-23,364258
-18,630981
-9,567261
-1,1077881
23,867798
34,84497
45,217896
53,07312
44,210815
48,54126
49,95117
46,42639
57,302856
55,792236
52,56958
34,240723
34,94568
27,493286
18,429565
16,71753
-1,9134521
-7,9559326
-9,365845
-7,1502686
-3,8269043
-3,6254883
-0,80566406
8,862305
8,963013
16,616821
19,134521
26,687622
21,350098
30,31311
38,269043
33,83789
32,32727
41,39099
42,800903
29,507446
15,609741
6,7474365
15,206909
34,542847
33,535767
29,608154
28,500366
-2,6184082
-32,93152
-51,763916
-56,497192
-54,68445
-29,003906
-10,977173
-11,581421
0,9063721
-36,154175
-164,6576
-205,94788
-176,54114
-124,4751
-82,07703
-42,095947
-53,67737
-81,47278
-110,980225
-135,15015
-139,5813
-120,64819
-84,59473
-35,34851
-15,609741
13,092041
12,991333
25,479126
39,37683
64,151
130,92041
161,23352
173,92273
106,8512
46,02356
1,8127441
-31,622314
-43,40515
-26,083374
-6,5460205
16,415405
29,708862
34,542847
31,32019
31,32019
17,926025
24,371338
12,084961
14,199829
11,682129
13,494873
0,50354004
1,4099121
7,7545166
28,601074
34,140015
38,87329
22,558594
6,4453125
-10,574341
-7,8552246
-23,062134
-20,24231
-4,0283203
8,560181
7,3516846
10,070801
17,321777
26,184082
35,95276
33,233643
30,31311
15,206909
26,083374
22,659302
22,25647
8,761597
4,1290283
-3,9276123
-10,775757
-20,040894
-33,83789
-35,85205
-37,765503
-31,118774
-27,29187
-24,371338
-23,464966
-20,24231
-20,040894
-18,73169
-20,544434
-16,314697
-1,6113281
2,3162842
10,775757
10,171509
18,530273
26,385498
29,708862
34,84497
36,758423
42,297363
40,585327
38,772583
34,542847
33,43506
30,514526
22,25647
19,638062
16,71753
15,609741
11,480713
3,9276123
1,3092041
2,3162842
1,0070801
-1,3092041
3,4240723
-13,696289
-12,689209
-26,28479
-31,924438
-39,074707
-48,843384
-49,749756
-59,1156
-66,970825
-68,58215
-72,10693
-61,73401
-63,64746
-52,468872
-37,664795
-18,933105
-18,026733
-9,164429
5,7403564
5,2368164
18,73169
44,815063
55,18799
47,332764
66,26587
59,1156
60,021973
58,20923
54,785156
48,03772
41,99524
26,184082
31,420898
23,464966
19,839478
9,164429
16,918945
21,450806
12,185669
9,365845
3,9276123
-7,6538086
-10,372925
-18,22815
-26,083374
-24,975586
-28,500366
-31,924438
-32,125854
-37,664795
-39,578247
-47,03064
-53,57666
-56,900024
-47,634888
-34,039307
-26,687622
-21,350098
-15,106201
-6,7474365
-0,10070801
4,3304443
6,9488525
12,991333
20,040894
22,76001
22,25647
24,169922
21,24939
26,78833
29,205322
33,233643
33,83789
28,097534
23,26355
11,883545
11,984253
11,883545
4,0283203
5,0354004
3,5247803
-2,0141602
-12,487793
-17,422485
-23,464966
-30,917358
-28,701782
-31,118774
-38,671875
-45,41931
-40,081787
-36,35559
-34,94568
-34,643555
-25,378418
-13,696289
-2,5177002
-0,70495605
5,5389404
2,5177002
12,588501
12,387085
15,710449
12,890625
11,279297
10,977173
2,4169922
4,1290283
7,8552246
4,4311523
11,480713
5,1361084
-2,8198242
2,4169922
2,2155762
1,8127441
6,9488525
4,5318604
20,443726
21,450806
18,832397
17,523193
6,9488525
4,7332764
-7,2509766
-8,056641
-1,1077881
-14,401245
-13,796997
-12,487793
-22,055054
-13,394165
-31,521606
-32,730103
-36,95984
-26,687622
-25,680542
-25,27771
-19,134521
-21,551514
-17,523193
-23,867798
-30,615234
-35,44922
-29,30603
-18,630981
-8,258057
-3,7261963
-1,1077881
1,9134521
8,358765
7,2509766
5,6396484
6,9488525
19,537354
12,991333
19,638062
17,523193
12,286377
-1,9134521
-17,623901
-31,32019
-25,479126
-39,98108
-44,110107
-46,627808
-50,05188
-45,01648
-52,468872
-47,836304
-47,634888
-41,189575
-41,088867
-36,254883
-25,680542
-13,595581
-4,2297363
2,9205322
10,876465
14,501953
19,638062
21,551514
26,083374
23,968506
19,73877
21,853638
20,040894
17,422485
30,715942
30,715942
34,94568
30,81665
17,422485
16,918945
1,5106201
-17,019653
-19,638062
-29,205322
-39,578247
-41,89453
-41,189575
-48,54126
-48,843384
-46,42639
-41,89453
-42,800903
-50,756836
-41,290283
-48,239136
-47,53418
-42,800903
-39,779663
-38,974
-28,500366
-17,22107
-9,869385
-6,7474365
-8,258057
-4,1290283
4,2297363
5,1361084
11,380005
17,422485
26,687622
21,551514
21,652222
28,097534
24,874878
30,715942
28,80249
18,429565
12,991333
15,408325
11,782837
6,7474365
5,2368164
5,2368164
5,2368164
5,2368164
5,2368164
5,2368164
5,2368164
5,2368164
5,2368164
5,2368164
5,2368164
5,2368164
5,2368164
5,2368164
5,2368164
-25,579834
-33,33435
-46,124268
-35,85205
-23,26355
-20,846558
-14,099121
-11,480713
-5,5389404
-7,1502686
-2,1148682
3,7261963
7,0495605
15,005493
10,473633
6,2438965
2,6184082
-2,3162842
1,9134521
4,9346924
4,1290283
0,50354004
3,2226562
-3,8269043
-4,7332764
-7,2509766
0,30212402
6,7474365
-0,20141602
9,466553
-2,1148682
-2,1148682
-8,963013
-12,991333
-17,120361
-18,429565
-28,29895
-26,486206
-32,32727
-29,406738
-34,542847
-36,758423
-35,751343
-29,708862
-24,069214
-11,883545
-10,473633
-5,1361084
-8,761597
-7,1502686
-1,9134521
2,4169922
4,2297363
9,869385
12,185669
6,6467285
5,5389404
5,3375244
12,890625
12,084961
13,696289
19,335938
25,982666
14,703369
14,804077
3,7261963
8,560181
3,2226562
3,7261963
-1,4099121
2,9205322
-18,530273
-24,069214
-31,018066
-40,786743
-46,627808
-49,850464
-53,475952
-54,785156
-48,843384
-47,634888
-45,721436
-45,117188
-39,276123
-41,693115
-33,032227
-23,867798
-14,099121
0,9063721
11,984253
20,24231
26,28479
39,98108
41,088867
37,664795
37,765503
27,392578
32,730103
29,406738
19,839478
14,602661
21,853638
5,8410645
7,4523926
2,5177002
-2,1148682
-14,804077
-20,74585
-19,134521
-27,593994
-18,328857
-14,300537
-18,429565
-15,106201
-8,358765
-6,1431885
-9,970093
-19,134521
-24,673462
-32,730103
-35,751343
-37,261963
-42,39807
-39,37683
-36,154175
-29,910278
-22,357178
-20,141602
-17,926025
-16,113281
-12,185669
-6,7474365
5,5389404
19,73877
11,682129
10,775757
11,883545
11,682129
12,286377
11,480713
16,818237
18,429565
20,74585
22,25647
17,825317
13,595581
6,9488525
11,380005
-0,50354004
-5,9417725
-10,372925
-23,364258
-25,881958
-33,535767
-40,786743
-37,96692
-41,39099
-36,35559
-39,779663
-45,620728
-37,664795
-38,87329
-41,592407
-35,44922
-23,867798
-13,595581
-12,286377
-8,963013
-2,5177002
-3,3233643
6,0424805
11,782837
23,867798
31,32019
42,599487
46,124268
46,02356
48,843384
41,99524
36,35559
32,93152
26,184082
23,26355
25,680542
18,026733
22,055054
11,984253
9,567261
8,862305
-6,4453125
-15,609741
-23,968506
-27,896118
-40,98816
-47,836304
-53,878784
-50,354004
-42,90161
-40,38391
-35,751343
-39,578247
-36,85913
-40,786743
-40,786743
-28,903198
-21,75293
-13,192749
-18,328857
-9,667969
-2,7191162
5,7403564
8,560181
21,047974
25,479126
23,464966
24,975586
22,055054
17,825317
14,300537
16,71753
17,019653
9,768677
7,6538086
4,5318604
-0,20141602
0,9063721
2,0141602
4,6325684
-4,7332764
-11,178589
-15,408325
-18,127441
-20,846558
-18,832397
-21,24939
-29,708862
-38,36975
-36,154175
-42,700195
-43,00232
-46,829224
-38,47046
-36,053467
-31,32019
-21,652222
-7,7545166
7,5531006
19,73877
17,72461
26,083374
31,521606
34,34143
42,800903
45,41931
49,649048
59,1156
59,1156
50,756836
51,864624
40,98816
30,615234
25,982666
26,989746
20,343018
14,602661
9,063721
10,775757
8,862305
0,10070801
-6,7474365
-18,933105
-21,853638
-22,457886
-20,443726
-25,982666
-23,867798
-29,003906
-22,860718
-21,24939
-20,040894
-13,696289
-18,832397
-20,74585
-27,896118
-15,408325
-2,4169922
5,2368164
12,789917
24,371338
23,666382
26,28479
39,678955
51,864624
54,986572
61,834717
58,511353
59,1156
59,820557
53,878784
50,05188
40,786743
33,9386
23,867798
23,062134
8,358765
-1,4099121
-11,984253
-16,71753
-18,832397
-15,509033
-11,581421
-24,069214
-36,95984
-38,269043
-40,686035
-42,800903
-48,03772
-43,304443
-47,53418
-44,91577
-46,627808
-39,678955
-42,196655
-46,627808
-41,189575
-29,507446
-23,666382
-10,977173
0,30212402
23,76709
45,721436
49,44763
57,10144
62,539673
55,892944
60,62622
40,48462
48,54126
45,217896
36,154175
29,003906
21,75293
15,206909
15,710449
1,9134521
-8,761597
-15,911865
-38,067627
-52,670288
-79,2572
-85,60181
-83,28552
-82,47986
-61,935425
-59,21631
-49,95117
-45,41931
-47,43347
-49,850464
-46,42639
-43,807983
-44,311523
-40,98816
-44,210815
-33,43506
-22,25647
-18,630981
-9,164429
-12,487793
0,9063721
6,0424805
11,077881
9,970093
19,73877
30,31311
26,989746
24,572754
18,832397
21,551514
22,659302
19,839478
16,516113
15,206909
12,890625
15,206909
8,761597
8,358765
19,335938
9,869385
4,2297363
-11,984253
-24,472046
-32,32727
-35,95276
-40,585327
-41,39099
-42,800903
-43,807983
-45,822144
-48,641968
-38,269043
-30,917358
-19,73877
-16,818237
-13,897705
-6,2438965
-0,10070801
8,157349
-7,6538086
8,560181
5,9417725
5,8410645
12,185669
17,120361
20,74585
17,22107
20,343018
15,206909
18,22815
12,890625
20,343018
19,638062
24,975586
24,673462
23,26355
14,401245
19,638062
17,825317
3,8269043
-1,5106201
0,50354004
-11,883545
-10,574341
-18,933105
-12,286377
-3,8269043
-5,5389404
-2,4169922
-10,876465
-17,523193
-18,22815
-23,464966
-23,666382
-15,710449
-9,768677
-5,7403564
2,9205322
6,9488525
9,869385
14,099121
21,24939
30,111694
24,169922
33,535767
33,83789
26,385498
25,378418
31,521606
27,896118
18,429565
15,811157
16,516113
11,581421
15,206909
10,372925
7,0495605
-0,10070801
-2,2155762
-5,1361084
-6,9488525
-7,5531006
-10,675049
-26,083374
-21,551514
-30,212402
-35,44922
-26,184082
-28,29895
-26,184082
-16,71753
-12,789917
-12,387085
-18,127441
-24,472046
-15,811157
-8,963013
-8,560181
-2,5177002
-1,0070801
4,3304443
3,9276123
8,459473
17,22107
15,609741
11,984253
15,206909
19,033813
15,408325
11,581421
17,422485
15,509033
16,616821
15,811157
14,703369
12,991333
10,372925
7,3516846
8,761597
10,574341
6,4453125
-7,5531006
-12,084961
-23,76709
-24,169922
-27,896118
-28,500366
-31,32019
-36,154175
-32,93152
-32,025146
-25,680542
-34,643555
-35,751343
-23,76709
-15,307617
-6,2438965
3,7261963
11,480713
5,9417725
9,466553
14,300537
10,977173
11,782837
25,076294
26,586914
30,81665
40,182495
33,132935
31,924438
33,032227
36,557007
39,779663
34,140015
30,111694
27,191162
14,804077
12,890625
21,853638
8,157349
2,3162842
-6,5460205
-17,523193
-22,357178
-29,608154
-35,751343
-36,154175
-44,41223
-48,641968
-48,239136
-47,836304
-49,246216
-37,765503
-44,210815
-39,678955
-16,314697
-14,703369
-5,3375244
0,40283203
1,0070801
7,2509766
16,415405
14,300537
20,947266
23,062134
36,154175
31,924438
35,95276
41,592407
44,815063
37,46338
26,28479
17,926025
15,005493
7,6538086
-0,20141602
-12,487793
-20,645142
-22,25647
-19,638062
-17,019653
-28,097534
-33,9386
-24,874878
-28,500366
-29,30603
-24,069214
-27,392578
-27,996826
-28,097534
-26,28479
-24,472046
-22,659302
-9,365845
-23,968506
-19,134521
-6,7474365
-4,5318604
-2,5177002
5,7403564
0,70495605
6,6467285
12,487793
13,394165
13,796997
9,768677
8,560181
6,6467285
5,5389404
7,2509766
6,9488525
11,984253
18,026733
12,588501
16,71753
-0,70495605
6,5460205
-1,0070801
-2,7191162
-3,2226562
-12,084961
-20,645142
-24,975586
-26,083374
-35,650635
-30,31311
-35,85205
-28,097534
-12,084961
-10,775757
-5,7403564
-9,869385
-15,609741
-16,516113
-15,408325
-10,473633
-0,50354004
5,3375244
4,3304443
9,466553
17,22107
11,581421
21,148682
23,26355
22,055054
25,982666
21,853638
28,399658
20,343018
33,43506
28,29895
29,003906
21,551514
29,30603
29,30603
18,73169
3,7261963
7,3516846
15,005493
11,380005
18,026733
-2,6184082
-4,3304443
-8,459473
-15,710449
-20,040894
-23,565674
-26,889038
-29,910278
-32,730103
-37,161255
-38,067627
-42,800903
-41,99524
-45,822144
-36,35559
-31,420898
-17,120361
-11,480713
-4,8339844
-2,3162842
-0,30212402
-5,2368164
13,192749
16,616821
18,429565
24,169922
26,586914
28,097534
36,35559
32,629395
40,283203
44,51294
50,656128
45,52002
37,161255
22,558594
19,638062
15,106201
12,890625
6,0424805
-1,3092041
-11,380005
-8,963013
-25,076294
-22,558594
-25,579834
-19,033813
-24,77417
-27,493286
-32,730103
-32,42798
-36,95984
-37,36267
-42,196655
-29,30603
-19,335938
-12,387085
-5,3375244
-3,7261963
7,0495605
9,970093
16,21399
21,652222
21,350098
23,26355
20,040894
24,27063
14,199829
15,206909
18,026733
14,199829
19,839478
19,839478
18,630981
19,033813
11,279297
8,560181
15,509033
5,7403564
11,077881
2,3162842
-5,7403564
-8,358765
-14,602661
-19,335938
-14,099121
-7,0495605
-10,171509
-12,789917
-10,977173
-16,818237
-37,765503
-38,571167
-48,54126
-48,641968
-37,161255
-17,22107
-13,192749
-3,5247803
-0,10070801
1,7120361
7,1502686
18,328857
21,954346
18,429565
16,21399
8,560181
5,2368164
3,8269043
5,2368164
0,50354004
3,2226562
4,9346924
0,10070801
1,5106201
5,7403564
0,9063721
9,869385
-3,4240723
2,9205322
-5,9417725
-2,7191162
-9,466553
-22,860718
-20,443726
-23,364258
-26,385498
-24,77417
-28,29895
-33,233643
-34,94568
-49,54834
-45,41931
-41,290283
-30,715942
-30,917358
-23,76709
-19,537354
-17,523193
-5,3375244
2,8198242
10,675049
6,1431885
23,062134
29,205322
29,30603
31,32019
28,500366
24,371338
22,055054
22,055054
11,380005
16,818237
10,977173
11,380005
-3,5247803
-7,0495605
-0,40283203
3,8269043
10,775757
7,7545166
2,6184082
-4,7332764
-11,279297
-21,450806
-18,429565
-20,74585
-25,27771
-27,79541
-26,78833
-25,982666
-23,162842
-26,889038
-29,708862
-26,989746
-26,586914
-16,113281
-11,178589
1,5106201
3,7261963
11,984253
20,040894
25,579834
21,047974
29,30603
27,090454
29,910278
27,593994
31,219482
38,772583
40,585327
34,039307
31,723022
28,399658
32,32727
20,74585
15,811157
13,394165
13,796997
5,9417725
-0,60424805
-1,5106201
-3,3233643
-18,026733
-17,22107
-19,033813
-26,28479
-30,514526
-28,80249
-29,910278
-29,30603
-27,29187
-35,95276
-29,708862
-28,701782
-15,609741
-6,7474365
-7,8552246
-6,4453125
-2,5177002
-0,80566406
7,8552246
8,560181
17,825317
20,74585
17,825317
18,127441
14,804077
14,904785
15,408325
10,372925
11,178589
11,480713
23,364258
11,782837
11,480713
4,4311523
8,560181
8,862305
4,5318604
-1,1077881
-10,272217
-2,1148682
-11,581421
-23,867798
-20,24231
-25,076294
-25,076294
-28,29895
-26,486206
-36,557007
-34,94568
-28,80249
-29,80957
-23,464966
-19,839478
-4,3304443
-5,7403564
1,1077881
2,2155762
3,6254883
13,092041
16,21399
19,73877
11,279297
11,984253
15,307617
14,199829
14,199829
13,092041
10,574341
14,703369
9,466553
8,560181
4,9346924
2,1148682
-7,0495605
1,0070801
-4,9346924
-2,8198242
-2,7191162
-9,970093
-11,380005
-13,494873
-13,796997
-20,040894
-24,673462
-24,673462
-32,730103
-43,40515
-38,47046
-27,694702
-36,35559
-38,067627
-35,34851
-28,097534
-15,106201
-10,372925
-10,574341
-7,5531006
4,6325684
10,473633
18,630981
34,140015
34,34143
31,118774
29,507446
22,76001
21,551514
19,940186
18,429565
14,199829
13,494873
4,9346924
-0,30212402
2,6184082
-5,9417725
-4,2297363
-1,1077881
0,80566406
-10,272217
-21,24939
-29,910278
-40,182495
-36,154175
-41,89453
-35,147095
-34,94568
-38,168335
-37,765503
-44,210815
-39,98108
-39,578247
-38,571167
-44,41223
-30,615234
-29,30603
-21,652222
-21,148682
-14,099121
-6,2438965
5,5389404
16,012573
21,652222
23,364258
39,779663
36,85913
31,018066
30,111694
33,132935
39,779663
37,96692
35,95276
25,881958
20,343018
20,040894
10,977173
3,6254883
7,1502686
0,20141602
-5,7403564
-13,192749
-10,977173
-20,24231
-27,29187
-23,464966
-17,72461
-29,507446
-25,479126
-29,910278
-27,996826
-27,996826
-22,25647
-26,687622
-28,500366
-18,22815
-11,782837
-8,056641
1,9134521
-3,5247803
13,998413
15,408325
6,9488525
17,72461
18,22815
7,0495605
-4,5318604
2,0141602
7,5531006
9,869385
8,157349
5,3375244
10,675049
16,516113
28,29895
24,77417
22,860718
19,839478
18,429565
8,560181
0,10070801
-1,5106201
-8,862305
-10,775757
-19,839478
-22,155762
-27,996826
-29,003906
-38,571167
-34,84497
-34,542847
-36,154175
-38,772583
-41,4917
-41,793823
-29,708862
-13,897705
-14,401245
-11,984253
-2,3162842
0,10070801
4,0283203
9,768677
16,71753
14,602661
10,675049
17,523193
20,74585
15,206909
12,991333
13,998413
10,070801
6,5460205
6,4453125
6,5460205
3,0212402
6,4453125
13,595581
23,666382
19,134521
5,1361084
-5,0354004
-6,0424805
-14,804077
-18,429565
-26,78833
-27,996826
-22,25647
-28,601074
-34,34143
-25,479126
-33,83789
-36,35559
-32,42798
-33,636475
-29,910278
-18,630981
-16,516113
-12,789917
-2,3162842
2,6184082
2,9205322
8,157349
14,703369
18,933105
22,659302
34,744263
34,84497
36,35559
36,657715
26,586914
37,46338
26,586914
27,79541
20,74585
13,796997
2,2155762
0,30212402
18,832397
15,206909
-0,80566406
-2,3162842
-7,0495605
-13,394165
-22,457886
-18,026733
-23,76709
-27,392578
-29,608154
-30,010986
-34,34143
-28,29895
-33,535767
-33,33435
-32,528687
-18,429565
-7,1502686
-8,761597
-3,7261963
-0,9063721
-1,1077881
8,761597
10,574341
16,918945
23,26355
22,76001
18,630981
23,565674
23,867798
25,27771
26,586914
24,371338
24,27063
22,659302
13,494873
3,4240723
1,8127441
-1,0070801
-5,3375244
-12,185669
-14,199829
-14,804077
-21,450806
-27,694702
-31,118774
-31,118774
-33,33435
-35,751343
-49,649048
-41,088867
-38,168335
-48,239136
-35,549927
-40,98816
-40,182495
-25,881958
-18,026733
-11,782837
-6,9488525
-0,40283203
7,1502686
9,869385
13,293457
16,918945
18,630981
17,825317
21,853638
17,825317
16,415405
16,113281
18,22815
12,286377
15,811157
4,8339844
3,7261963
4,2297363
-2,2155762
-1,1077881
-2,1148682
-5,9417725
-12,487793
-15,106201
-15,911865
-22,25647
-25,479126
-28,601074
-34,240723
-27,090454
-30,81665
-32,125854
-26,083374
-35,046387
-36,35559
-24,069214
-21,148682
-21,24939
-12,387085
-3,1219482
3,4240723
13,192749
7,3516846
6,4453125
8,963013
18,630981
13,696289
12,890625
23,062134
32,32727
32,226562
42,39807
43,707275
35,95276
24,472046
20,141602
11,581421
9,365845
14,703369
4,8339844
4,3304443
1,4099121
-2,1148682
-9,667969
-11,984253
-19,033813
-27,29187
-31,521606
-34,140015
-33,43506
-34,542847
-38,36975
-43,00232
-41,290283
-40,283203
-38,269043
-33,636475
-31,018066
-21,853638
-13,394165
-13,696289
-2,7191162
0,20141602
12,588501
12,689209
11,782837
21,853638
25,982666
28,701782
29,910278
28,500366
24,673462
20,74585
16,71753
9,667969
4,3304443
5,8410645
0,70495605
1,1077881
0,70495605
1,1077881
4,6325684
-3,5247803
-4,7332764
-17,926025
-22,25647
-17,523193
-20,947266
-27,493286
-29,507446
-22,357178
-29,910278
-30,010986
-33,233643
-32,730103
-40,182495
-40,786743
-33,737183
-15,811157
-6,8481445
-11,782837
7,9559326
20,040894
19,638062
27,392578
31,521606
31,118774
24,069214
27,493286
25,680542
27,29187
26,586914
13,998413
22,055054
22,055054
34,643555
13,595581
10,171509
4,5318604
3,7261963
-1,8127441
-7,4523926
-15,408325
-11,682129
-16,314697
-20,645142
-22,25647
-23,867798
-28,198242
-22,25647
-24,975586
-29,205322
-30,010986
-26,385498
-26,184082
-31,622314
-32,025146
-26,184082
-13,796997
-9,164429
-10,372925
-6,3446045
4,2297363
5,0354004
0,50354004
13,192749
11,380005
26,586914
30,31311
23,666382
19,436646
24,27063
23,364258
27,996826
35,147095
21,652222
28,399658
23,867798
9,768677
16,415405
8,358765
4,9346924
-7,3516846
-17,019653
-29,708862
-34,744263
-34,240723
-34,542847
-41,89453
-34,140015
-31,118774
-41,592407
-41,39099
-31,118774
-30,917358
-31,219482
-17,422485
-12,387085
5,0354004
-12,991333
2,3162842
13,595581
11,279297
19,033813
17,926025
25,378418
16,314697
23,26355
7,5531006
12,185669
15,206909
10,473633
14,501953
13,998413
13,696289
11,883545
4,3304443
1,1077881
-0,30212402
5,0354004
1,2084961
1,5106201
1,3092041
-17,120361
-12,286377
-28,29895
-27,493286
-26,28479
-27,996826
-39,074707
-39,47754
-42,39807
-40,182495
-39,779663
-30,615234
-47,131348
-48,44055
-42,196655
-20,846558
-10,574341
-2,9205322
2,7191162
2,9205322
9,063721
24,874878
17,22107
28,198242
39,175415
44,51294
39,276123
34,84497
19,033813
15,206909
21,047974
20,74585
25,479126
26,184082
25,177002
19,436646
16,818237
16,71753
13,998413
12,890625
3,0212402
9,164429
-5,4382324
-13,192749
-21,24939
-19,638062
-17,120361
-20,443726
-18,73169
-17,22107
-20,947266
-18,429565
-21,551514
-23,464966
-19,23523
-5,7403564
-6,4453125
-3,7261963
2,9205322
6,9488525
11,480713
16,516113
23,364258
27,79541
25,680542
26,889038
21,853638
18,328857
16,918945
4,5318604
7,8552246
7,3516846
-0,10070801
-0,9063721
-6,1431885
-7,2509766
-16,113281
-12,286377
-6,9488525
-4,4311523
-6,8481445
-12,286377
-12,789917
-13,092041
-12,084961
-13,192749
-11,178589
-7,3516846
-12,789917
-18,832397
-19,335938
-16,818237
-25,479126
-24,169922
-24,874878
-5,6396484
-3,0212402
0
5,8410645
8,258057
4,1290283
11,279297
23,464966
17,825317
17,22107
21,148682
25,076294
23,26355
32,93152
32,226562
22,357178
22,860718
20,040894
20,141602
23,162842
12,588501
3,1219482
-7,9559326
-2,3162842
-8,862305
-17,523193
-21,853638
-26,486206
-28,198242
-37,765503
-39,578247
-36,35559
-34,140015
-32,226562
-27,79541
-24,169922
-15,509033
-20,343018
-19,638062
-14,703369
-5,9417725
5,9417725
7,2509766
8,258057
23,867798
19,73877
24,572754
22,659302
28,500366
29,30603
30,111694
27,694702
25,378418
30,111694
24,371338
25,881958
14,904785
17,019653
18,026733
7,7545166
7,9559326
-0,9063721
7,1502686
4,6325684
-0,9063721
-15,408325
-28,903198
-29,003906
-29,30603
-28,097534
-42,800903
-33,132935
-37,36267
-35,34851
-37,36267
-35,44922
-28,097534
-35,85205
-36,4563
-23,666382
-13,796997
-11,178589
-4,2297363
4,2297363
6,4453125
13,092041
19,537354
25,27771
23,26355
25,680542
28,29895
24,27063
27,996826
25,78125
21,652222
18,127441
16,616821
18,22815
19,839478
8,560181
-0,70495605
-2,2155762
5,9417725
2,8198242
-5,4382324
-8,358765
-18,630981
-19,839478
-25,076294
-31,521606
-34,744263
-33,132935
-35,650635
-28,903198
-36,758423
-40,182495
-42,800903
-43,707275
-34,94568
-22,055054
-3,0212402
7,5531006
17,321777
20,443726
16,71753
20,846558
29,104614
23,162842
32,42798
27,593994
24,572754
31,82373
23,867798
13,192749
6,7474365
5,3375244
0,10070801
-0,9063721
-10,171509
-11,883545
-13,192749
-13,796997
-13,897705
0,10070801
1,9134521
-1,5106201
6,7474365
5,5389404
7,6538086
6,2438965
-2,5177002
0,50354004
-10,977173
-10,372925
-21,24939
-21,551514
-18,127441
-17,825317
-24,27063
-17,523193
-17,825317
-2,2155762
-1,4099121
14,199829
7,7545166
14,804077
16,516113
22,457886
24,069214
20,141602
29,910278
35,147095
27,493286
24,975586
20,443726
23,666382
17,019653
8,560181
8,862305
16,71753
6,1431885
-4,5318604
2,5177002
0,30212402
-3,7261963
-9,567261
-19,335938
-24,069214
-29,80957
-31,219482
-34,039307
-37,96692
-40,48462
-38,47046
-31,219482
-35,85205
-39,578247
-36,4563
-34,84497
-25,27771
-12,387085
-6,9488525
2,8198242
-4,3304443
10,977173
21,652222
27,694702
31,118774
37,564087
47,634888
50,756836
41,4917
31,219482
37,161255
24,975586
24,673462
15,005493
13,494873
10,372925
5,2368164
2,5177002
2,9205322
1,1077881
4,3304443
0
-7,2509766
-9,164429
-16,415405
-25,479126
-24,472046
-29,80957
-27,090454
-44,110107
-34,94568
-38,47046
-47,634888
-42,39807
-43,40515
-40,686035
-35,95276
-26,586914
-14,099121
-7,5531006
-1,4099121
-0,30212402
9,265137
20,24231
20,947266
24,874878
27,896118
20,040894
19,23523
19,436646
18,933105
17,926025
16,818237
18,328857
17,926025
15,307617
4,0283203
2,4169922
-1,6113281
-2,3162842
-9,164429
-19,23523
-21,652222
-28,29895
-23,666382
-33,636475
-32,93152
-38,571167
-40,88745
-46,42639
-41,189575
-41,592407
-40,585327
-31,924438
-23,565674
-17,019653
-9,365845
-0,70495605
4,5318604
12,084961
15,811157
17,825317
36,758423
29,406738
28,500366
29,910278
31,723022
30,615234
28,701782
21,954346
22,961426
18,429565
20,645142
17,523193
17,926025
12,387085
7,2509766
5,1361084
2,0141602
6,5460205
3,2226562
0,60424805
-4,6325684
-8,157349
-12,789917
-23,464966
-24,77417
-27,996826
-30,917358
-32,93152
-28,80249
-32,226562
-32,226562
-30,514526
-32,93152
-29,910278
-28,097534
-16,314697
-10,775757
-7,5531006
0,70495605
-0,80566406
-1,1077881
6,3446045
8,157349
8,560181
12,286377
14,804077
17,321777
13,092041
14,199829
14,703369
10,272217
4,6325684
20,443726
22,659302
24,169922
22,76001
13,696289
16,516113
11,480713
3,5247803
10,272217
12,588501
6,9488525
-9,265137
1,1077881
-2,8198242
-11,782837
-12,084961
-14,703369
-15,005493
-23,867798
-24,27063
-27,29187
-25,579834
-22,558594
-12,991333
-10,171509
-14,199829
-1,1077881
-2,1148682
-3,5247803
0,70495605
11,480713
16,314697
17,825317
27,79541
20,040894
18,429565
21,450806
21,652222
27,896118
28,097534
18,630981
20,343018
21,450806
9,869385
17,523193
3,2226562
4,3304443
2,9205322
-1,8127441
-10,171509
-17,523193
-28,500366
-21,450806
-25,479126
-29,507446
-28,29895
-29,80957
-27,694702
-28,399658
-21,450806
-32,125854
-34,240723
-33,132935
-25,479126
-18,026733
-14,804077
-8,157349
-8,560181
2,3162842
5,9417725
14,804077
13,595581
17,120361
23,867798
34,542847
40,182495
34,744263
38,671875
24,874878
26,486206
16,918945
19,436646
14,804077
5,7403564
4,1290283
8,560181
0,10070801
-5,0354004
-8,761597
-8,862305
-15,811157
-15,811157
-23,26355
-22,457886
-23,968506
-26,486206
-24,472046
-30,31311
-37,36267
-34,542847
-34,94568
-38,87329
-30,917358
-28,500366
-15,811157
-15,307617
-4,5318604
-0,10070801
-4,7332764
5,4382324
8,258057
12,387085
9,768677
11,480713
14,501953
12,991333
13,796997
10,272217
8,258057
7,5531006
5,7403564
7,3516846
5,3375244
5,9417725
9,869385
10,372925
10,473633
10,372925
3,5247803
-1,5106201
-11,380005
-16,113281
-14,199829
-18,429565
-28,500366
-24,169922
-25,78125
-21,853638
-27,090454
-20,645142
-22,457886
-22,860718
-17,623901
-11,782837
-8,157349
-0,70495605
2,9205322
0,9063721
4,3304443
10,171509
15,710449
12,991333
15,005493
7,1502686
16,415405
18,429565
14,300537
13,192749
6,8481445
6,2438965
-1,9134521
-2,5177002
-9,265137
-9,768677
-10,977173
0,9063721
1,8127441
4,6325684
0,10070801
0,30212402
0,40283203
-16,616821
-9,365845
-2,8198242
-7,0495605
-10,876465
-17,120361
-17,019653
-6,0424805
-13,897705
-19,23523
-17,321777
-15,509033
-4,1290283
-7,9559326
-8,761597
-4,4311523
-6,3446045
-3,2226562
0,80566406
10,977173
10,372925
18,328857
19,335938
29,003906
29,104614
29,205322
23,162842
19,033813
21,75293
15,811157
17,523193
-3,5247803
-1,0070801
-3,9276123
7,3516846
18,429565
4,6325684
0,30212402
-7,2509766
-12,689209
-19,839478
-25,680542
-23,565674
-31,521606
-38,974
-45,318604
-45,41931
-51,663208
-52,56958
-57,60498
-50,958252
-47,634888
-38,87329
-21,24939
-25,479126
-16,113281
-5,8410645
9,768677
15,911865
26,28479
27,392578
29,910278
23,062134
33,737183
36,254883
34,84497
29,104614
33,233643
30,715942
25,076294
19,335938
14,199829
9,466553
4,1290283
6,4453125
3,4240723
-1,0070801
-3,5247803
-10,775757
-15,609741
-14,300537
-25,378418
-26,083374
-27,896118
-18,832397
-9,567261
-15,408325
-46,02356
-63,043213
-67,8772
-60,021973
-58,914185
-52,468872
-49,346924
-45,01648
-42,90161
-33,032227
-21,24939
-15,408325
0,40283203
18,127441
21,148682
25,579834
35,751343
40,081787
36,4563
44,0094
51,361084
47,332764
55,490112
46,5271
34,039307
16,918945
24,673462
25,881958
26,687622
4,5318604
-0,10070801
-9,164429
-8,358765
-23,565674
-26,687622
-26,687622
-24,77417
-32,42798
-31,924438
-31,82373
-26,28479
-26,385498
-30,111694
-26,78833
-22,25647
-6,7474365
-0,10070801
-2,3162842
3,3233643
-1,9134521
5,5389404
11,077881
8,660889
9,265137
13,796997
8,761597
13,998413
8,358765
5,6396484
7,3516846
2,1148682
-2,6184082
-6,4453125
-6,0424805
-15,811157
-21,954346
-18,630981
-16,415405
-9,265137
-10,675049
-7,8552246
-15,005493
-12,689209
-14,199829
-13,998413
-5,1361084
-4,3304443
-5,6396484
-9,567261
-3,3233643
-7,1502686
-4,9346924
-9,466553
-10,574341
-8,157349
0,60424805
11,380005
4,9346924
8,056641
10,977173
10,473633
11,581421
19,73877
19,73877
18,933105
22,860718
26,28479
22,860718
18,530273
23,162842
17,825317
11,782837
7,9559326
7,4523926
0,80566406
-0,10070801
-8,963013
-15,710449
-17,019653
-20,040894
-22,357178
-25,680542
-35,147095
-33,737183
-41,793823
-45,620728
-47,332764
-41,592407
-36,85913
-44,210815
-39,47754
-44,815063
-40,48462
-38,168335
-40,88745
-30,615234
-23,364258
-18,429565
-5,3375244
2,9205322
6,6467285
19,033813
21,24939
30,212402
26,083374
25,982666
25,27771
24,27063
14,501953
17,422485
14,904785
12,185669
7,3516846
10,171509
13,192749
8,560181
-1,9134521
3,7261963
1,1077881
-4,7332764
-8,761597
-19,638062
-16,616821
-22,659302
-27,593994
-37,060547
-33,737183
-30,514526
-32,629395
-36,758423
-37,564087
-39,779663
-38,067627
-37,564087
-31,924438
-29,80957
-20,141602
-11,883545
-6,5460205
-2,6184082
1,8127441
9,466553
8,056641
15,408325
23,464966
18,026733
20,544434
23,364258
22,76001
24,673462
29,608154
31,32019
41,592407
38,772583
31,622314
37,564087
26,486206
25,881958
6,9488525
-6,5460205
-2,5177002
-5,4382324
-6,0424805
-18,832397
-22,860718
-64,85596
-90,03296
-94,3634
-86,60889
-76,638794
-61,532593
-49,95117
-36,758423
-31,521606
-30,917358
-30,111694
16,113281
2,9205322
5,0354004
4,8339844
26,989746
41,89453
49,0448
52,06604
48,03772
37,564087
25,680542
8,963013
2,6184082
-15,005493
-18,328857
-3,3233643
8,358765
23,062134
8,862305
-4,7332764
-23,666382
-18,127441
29,507446
49,346924
90,234375
137,1643
125,68359
151,16272
203,32947
256,7047
288,52844
269,69604
230,92346
183,38928
124,17297
71,40198
14,199829
-23,565674
-63,446045
-96,47827
-126,48926
-169,89441
-218,23425
-272,01233
-301,01624
-303,63464
-299,80774
-289,1327
-262,44507
-217,02576
-189,53247
-162,84485
-149,7528
-136,86218
-128,2013
-108,86536
-71,09985
-45,01648
-10,977173
16,21399
35,147095
44,815063
46,325684
42,49878
44,110107
63,24463
79,055786
82,37915
80,26428
78,25012
55,288696
39,175415
39,779663
22,25647
16,012573
14,602661
10,977173
-0,20141602
7,4523926
-0,20141602
11,883545
40,081787
80,667114
104,937744
120,95032
139,37988
152,97546
157,30591
161,53564
156,60095
125,18005
102,923584
75,83313
58,914185
43,00232
27,29187
7,1502686
-6,7474365
-31,82373
-57,504272
-92,14783
-103,22571
-117,022705
-118,43262
-123,97156
-117,022705
-114,505005
-109,26819
-107,85828
-103,22571
-89,730835
-70,89844
-63,24463
-51,461792
-36,557007
-21,853638
-13,998413
-10,574341
-2,5177002
12,689209
17,825317
20,343018
29,708862
37,564087
45,620728
54,281616
43,50586
37,36267
32,93152
18,22815
7,5531006
2,0141602
-5,5389404
-8,358765
-14,199829
-13,192749
-29,507446
-18,630981
-22,055054
-16,516113
-29,406738
-20,24231
-17,22107
-14,804077
-20,443726
-23,464966
-28,601074
-33,132935
-36,85913
-34,84497
-39,175415
-39,779663
-36,557007
-33,737183
-35,751343
-32,42798
-31,82373
-36,154175
-39,98108
-37,664795
-27,694702
-18,026733
-20,645142
-12,588501
4,0283203
16,113281
14,300537
25,076294
30,715942
38,772583
42,49878
40,786743
37,86621
36,154175
29,507446
26,385498
23,666382
17,926025
13,796997
5,7403564
-0,20141602
7,1502686
9,970093
2,5177002
-0,80566406
-6,9488525
-17,22107
-25,378418
-30,715942
-34,140015
-32,528687
-28,903198
-15,509033
-17,623901
-15,710449
-17,019653
-19,134521
-15,307617
-15,307617
-6,4453125
3,7261963
13,192749
22,25647
30,212402
21,853638
21,350098
22,961426
30,413818
26,989746
24,572754
26,989746
23,867798
18,630981
21,450806
20,74585
16,616821
10,977173
3,9276123
7,1502686
16,21399
14,099121
19,033813
26,28479
25,680542
20,040894
3,0212402
-15,408325
-22,055054
-25,78125
-25,982666
-31,521606
-33,33435
-28,601074
-29,608154
-22,961426
-26,78833
-20,24231
-18,026733
-29,708862
-2,1148682
-1,5106201
8,761597
8,761597
12,890625
20,24231
25,982666
32,025146
38,671875
42,700195
56,295776
44,714355
37,765503
36,35559
25,78125
25,076294
22,659302
21,047974
17,825317
16,21399
11,581421
9,063721
13,696289
17,72461
9,567261
4,6325684
3,3233643
-6,7474365
-19,638062
-11,782837
-14,703369
-17,926025
-19,335938
-30,111694
-29,003906
-26,486206
-33,33435
-31,219482
-24,27063
-16,616821
-3,7261963
31,723022
74,92676
102,21863
69,79065
71,30127
81,06995
93,96057
94,96765
77,24304
61,12976
48,239136
30,010986
15,206909
-2,7191162
-13,897705
-19,940186
-36,657715
-51,965332
-50,152588
-54,382324
-70,79773
-131,82678
-166,0675
-119,74182
43,00232
204,23584
261,7401
162,44202
66,16516
-72,61047
-200,10681
-296,7865
-382,69043
-472,62268
-518,4448
-522,47314
-450,76904
-300,6134
