7,8552246
8,459473
7,0495605
8,963013
10,574341
3,3233643
10,675049
4,5318604
9,768677
13,494873
15,005493
9,768677
14,703369
14,300537
17,019653
16,21399
13,998413
15,005493
15,811157
13,696289
18,630981
14,602661
13,394165
10,171509
8,761597
14,703369
5,6396484
7,4523926
5,7403564
10,171509
10,775757
11,984253
4,9346924
8,761597
8,358765
7,4523926
12,286377
9,869385
8,560181
7,8552246
10,876465
9,869385
8,560181
2,9205322
7,2509766
3,9276123
-0,10070801
-1,7120361
6,7474365
8,157349
6,0424805
15,710449
15,811157
8,862305
11,178589
10,171509
16,818237
15,005493
12,387085
11,782837
12,588501
7,8552246
11,984253
9,164429
8,358765
4,6325684
6,5460205
10,372925
0,70495605
6,4453125
7,6538086
7,7545166
-2,6184082
5,1361084
4,8339844
2,1148682
3,8269043
5,3375244
4,9346924
3,7261963
8,761597
4,9346924
-0,70495605
12,084961
3,4240723
10,574341
6,1431885
5,7403564
8,358765
8,157349
9,063721
6,9488525
3,5247803
8,560181
9,667969
8,358765
6,4453125
7,8552246
-2,6184082
-0,70495605
4,2297363
5,7403564
7,8552246
6,8481445
4,6325684
7,1502686
12,084961
10,977173
10,473633
5,2368164
7,5531006
8,157349
8,157349
9,365845
7,0495605
3,9276123
14,199829
10,574341
3,2226562
4,0283203
6,4453125
5,9417725
-0,30212402
3,3233643
3,6254883
0,60424805
0,9063721
3,3233643
8,761597
4,9346924
3,7261963
-1,5106201
0,30212402
-0,20141602
5,0354004
8,056641
8,358765
6,6467285
0,9063721
4,7332764
8,761597
3,4240723
6,9488525
12,487793
6,0424805
2,1148682
6,9488525
0,30212402
2,1148682
3,6254883
-0,9063721
0,70495605
-1,3092041
4,2297363
10,171509
2,9205322
1,4099121
11,883545
-2,7191162
-4,1290283
-2,6184082
-2,9205322
7,8552246
2,5177002
-0,10070801
4,4311523
4,7332764
6,6467285
6,1431885
8,761597
8,560181
4,1290283
-1,8127441
12,286377
12,689209
8,560181
9,365845
7,2509766
7,2509766
6,9488525
11,883545
3,0212402
9,466553
7,9559326
9,667969
16,918945
15,609741
12,991333
6,8481445
-0,30212402
-7,5531006
-12,890625
-4,8339844
-2,2155762
-6,0424805
2,0141602
-4,7332764
-2,8198242
-3,9276123
-0,9063721
-2,5177002
-1,5106201
-1,0070801
2,0141602
3,6254883
3,2226562
1,4099121
5,9417725
0,70495605
3,2226562
3,3233643
4,7332764
3,2226562
1,2084961
1,7120361
5,7403564
-1,1077881
6,7474365
10,171509
6,2438965
8,660889
8,358765
7,8552246
3,7261963
3,5247803
9,768677
6,1431885
8,056641
8,963013
8,862305
5,2368164
4,1290283
2,8198242
6,4453125
2,4169922
1,8127441
-1,1077881
1,4099121
12,387085
8,358765
8,258057
4,6325684
2,3162842
-0,10070801
-11,077881
-12,789917
-11,984253
-13,796997
-9,567261
-6,8481445
-0,9063721
3,7261963
2,3162842
5,9417725
6,1431885
13,192749
5,3375244
6,8481445
1,7120361
-3,7261963
4,2297363
1,8127441
3,0212402
4,1290283
6,1431885
2,9205322
4,8339844
8,358765
5,3375244
3,0212402
5,7403564
5,0354004
-2,4169922
5,2368164
6,4453125
2,8198242
0,40283203
-0,70495605
-0,10070801
-3,2226562
-1,5106201
-0,50354004
0,20141602
4,3304443
-2,9205322
-6,3446045
-6,3446045
2,4169922
0,30212402
3,3233643
4,1290283
3,2226562
4,0283203
10,574341
11,682129
12,890625
9,365845
-2,2155762
1,4099121
2,8198242
-3,4240723
4,2297363
0,70495605
3,8269043
2,6184082
-1,7120361
0,80566406
-0,70495605
4,1290283
1,7120361
1,2084961
-1,1077881
-1,2084961
0,80566406
1,8127441
2,0141602
5,3375244
8,258057
16,616821
10,171509
6,9488525
5,3375244
10,372925
6,5460205
3,5247803
-0,10070801
3,3233643
5,6396484
-4,0283203
-0,9063721
-2,4169922
0,60424805
6,8481445
6,6467285
-3,5247803
9,970093
4,4311523
-3,5247803
-7,1502686
-5,0354004
-1,5106201
-3,4240723
-0,70495605
-0,30212402
4,1290283
5,8410645
-1,1077881
-0,10070801
0,10070801
5,5389404
-0,70495605
-1,5106201
-5,7403564
-4,3304443
-6,2438965
-0,30212402
9,667969
1,6113281
-0,50354004
-2,3162842
-0,30212402
-0,30212402
4,2297363
0,50354004
0,9063721
-1,2084961
1,7120361
-0,10070801
2,3162842
-0,70495605
-2,9205322
0
1,1077881
0,9063721
2,6184082
10,574341
8,862305
7,6538086
-6,3446045
-1,8127441
2,5177002
3,7261963
-1,6113281
0,9063721
3,2226562
1,9134521
-3,1219482
-1,8127441
-2,7191162
-1,9134521
-3,8269043
-1,3092041
0,50354004
3,3233643
-0,70495605
-2,8198242
-0,9063721
-2,4169922
-1,9134521
0,70495605
-2,9205322
0,10070801
-10,272217
-8,862305
-2,1148682
-0,80566406
-3,0212402
-0,80566406
-14,099121
-4,9346924
1,5106201
3,9276123
1,3092041
0,30212402
-1,5106201
-5,7403564
0,50354004
0,20141602
1,1077881
8,157349
-2,3162842
0
4,0283203
3,0212402
2,5177002
2,9205322
1,9134521
0,80566406
3,7261963
-2,6184082
-2,3162842
-4,2297363
-1,5106201
-5,1361084
-5,7403564
0
-1,5106201
0,70495605
1,8127441
0,10070801
0,9063721
-6,3446045
0,30212402
-0,50354004
-4,5318604
-0,10070801
-3,9276123
-6,1431885
-5,7403564
-5,9417725
-5,5389404
2,2155762
-1,4099121
-13,394165
-3,0212402
0,10070801
1,4099121
1,3092041
2,0141602
7,0495605
1,9134521
0,20141602
0,30212402
2,2155762
7,5531006
3,1219482
-3,5247803
-6,0424805
-3,6254883
-5,0354004
-2,6184082
-1,1077881
-6,8481445
0
-3,4240723
-5,7403564
-5,7403564
-1,5106201
-4,5318604
-1,5106201
-4,1290283
3,6254883
-0,30212402
-5,6396484
7,3516846
-0,20141602
-3,7261963
1,1077881
-9,466553
-2,1148682
-2,7191162
0,9063721
-2,3162842
4,8339844
-2,7191162
-8,660889
0,9063721
0,10070801
-0,10070801
-2,7191162
-2,4169922
-0,10070801
5,7403564
-3,5247803
0,70495605
6,2438965
-3,0212402
-3,1219482
-7,6538086
-0,50354004
-3,2226562
1,9134521
2,6184082
4,5318604
-2,8198242
0,70495605
-1,3092041
4,7332764
-7,1502686
-4,0283203
-0,40283203
-1,5106201
-0,30212402
-3,0212402
-0,10070801
-1,1077881
3,9276123
1,9134521
-10,070801
-7,3516846
-9,063721
-5,1361084
2,3162842
2,7191162
-8,459473
1,8127441
2,3162842
1,7120361
3,3233643
-2,7191162
7,5531006
-5,4382324
-2,9205322
-2,1148682
-4,1290283
4,4311523
2,3162842
4,4311523
6,8481445
7,9559326
6,4453125
5,1361084
1,9134521
-0,40283203
-5,2368164
-0,10070801
2,9205322
0
-0,70495605
10,372925
-1,8127441
1,3092041
0,40283203
-6,7474365
-8,358765
-4,3304443
-4,3304443
-2,7191162
-2,6184082
-7,1502686
1,7120361
-4,3304443
-2,5177002
-4,0283203
-1,1077881
0,10070801
0,10070801
0,20141602
2,8198242
4,5318604
-0,9063721
4,5318604
0,70495605
3,7261963
5,7403564
-0,70495605
-2,3162842
1,8127441
3,3233643
-3,3233643
6,5460205
4,6325684
-1,1077881
1,7120361
-2,1148682
-3,2226562
-3,1219482
-4,2297363
1,3092041
2,6184082
-4,3304443
-8,963013
-0,9063721
-6,9488525
-4,7332764
-8,761597
-3,3233643
-6,9488525
-3,1219482
2,1148682
-3,7261963
-0,40283203
-4,3304443
-3,3233643
-3,5247803
-2,1148682
-8,560181
-3,7261963
-0,9063721
-3,5247803
0,50354004
-0,20141602
6,0424805
0,10070801
-7,0495605
-1,5106201
8,157349
-2,6184082
-2,7191162
-3,4240723
-5,7403564
-6,1431885
-7,1502686
-3,8269043
-9,365845
-7,7545166
-9,567261
-3,9276123
-9,164429
-11,883545
-10,775757
-8,963013
-2,6184082
-5,9417725
-3,6254883
-6,7474365
-12,789917
-2,9205322
-5,3375244
-2,5177002
-5,7403564
-2,6184082
-1,9134521
-2,3162842
-7,8552246
-8,963013
-3,9276123
-1,6113281
-7,8552246
-2,1148682
-4,3304443
-4,2297363
-5,6396484
-3,1219482
-0,50354004
-4,1290283
-1,3092041
-2,2155762
-10,372925
-7,0495605
-1,5106201
-2,0141602
6,5460205
-0,70495605
2,9205322
-1,7120361
-0,50354004
-8,963013
-0,20141602
-6,1431885
-1,5106201
-7,0495605
-5,3375244
-2,0141602
-6,1431885
-9,466553
-3,4240723
-7,9559326
-2,3162842
1,0070801
-0,30212402
-0,20141602
11,178589
1,7120361
3,3233643
6,0424805
1,4099121
2,7191162
0,70495605
-0,9063721
6,7474365
-4,8339844
-1,9134521
2,4169922
3,9276123
0,70495605
-6,1431885
0,30212402
-3,4240723
-3,1219482
-1,3092041
2,4169922
-8,761597
-1,6113281
-0,9063721
-15,710449
-6,4453125
-4,7332764
0,30212402
-3,5247803
-8,660889
-3,1219482
1,3092041
-5,4382324
-6,4453125
-0,30212402
9,466553
-1,3092041
-4,4311523
-7,8552246
-5,8410645
-8,358765
-2,7191162
-5,4382324
-5,3375244
-4,6325684
-1,6113281
-2,4169922
-0,50354004
-0,9063721
8,560181
2,5177002
1,8127441
-0,10070801
5,2368164
3,6254883
0,80566406
-6,2438965
4,6325684
-2,1148682
-3,2226562
-0,10070801
1,0070801
-7,3516846
-2,3162842
-6,6467285
-4,3304443
-0,70495605
2,0141602
-1,7120361
0,9063721
-2,2155762
-1,9134521
-2,8198242
2,1148682
0,50354004
1,3092041
-4,3304443
-2,7191162
-0,30212402
-0,30212402
-1,7120361
-3,9276123
-0,50354004
-4,3304443
-3,2226562
0,30212402
-4,5318604
0,10070801
0,70495605
0,10070801
-2,7191162
0,10070801
-2,9205322
-9,365845
6,1431885
-0,30212402
4,6325684
-3,5247803
8,157349
-2,9205322
-0,30212402
1,7120361
-2,7191162
0,80566406
-9,970093
-4,6325684
4,8339844
-1,7120361
-4,2297363
1,7120361
-2,7191162
-5,3375244
-1,2084961
-4,2297363
-3,9276123
-1,2084961
-8,358765
-7,7545166
-1,2084961
-3,7261963
-5,1361084
-1,1077881
-0,9063721
-3,7261963
-4,2297363
-10,574341
-2,7191162
-0,10070801
7,5531006
-4,9346924
9,466553
-5,8410645
-0,20141602
10,372925
6,9488525
-0,60424805
-3,5247803
-4,4311523
-4,0283203
-5,8410645
2,0141602
-1,1077881
4,5318604
6,5460205
3,5247803
-4,7332764
5,9417725
-2,6184082
-6,7474365
0,9063721
-2,7191162
-4,4311523
-1,1077881
5,3375244
-6,7474365
-5,4382324
-7,3516846
-7,7545166
-5,3375244
-2,4169922
-1,9134521
8,258057
-5,1361084
-15,408325
-11,480713
-4,3304443
-0,20141602
-1,6113281
-3,6254883
-7,3516846
-7,8552246
-4,8339844
-6,2438965
0,50354004
-0,30212402
-2,7191162
7,0495605
-2,7191162
-6,7474365
-2,9205322
0,70495605
10,372925
13,394165
7,2509766
4,5318604
0,70495605
-7,7545166
-5,3375244
-5,3375244
-3,0212402
1,7120361
-8,963013
-6,7474365
-11,581421
-9,970093
-13,595581
-10,977173
-7,0495605
-7,5531006
-7,8552246
-1,9134521
-7,9559326
-0,30212402
-1,6113281
-0,9063721
2,7191162
-0,70495605
-5,3375244
2,7191162
-3,5247803
8,660889
-4,7332764
-4,1290283
-0,50354004
-2,5177002
-1,8127441
-2,4169922
3,1219482
2,9205322
-0,10070801
-1,7120361
-4,7332764
-1,2084961
-8,459473
-5,1361084
-3,2226562
-2,5177002
1,3092041
0,10070801
3,0212402
1,3092041
-1,5106201
1,3092041
-3,2226562
-1,4099121
-1,1077881
-5,0354004
-6,1431885
-18,630981
-6,7474365
-10,977173
-8,560181
-8,258057
-3,3233643
-7,8552246
-3,9276123
-3,2226562
-5,8410645
-7,2509766
-1,7120361
-4,1290283
-6,2438965
-6,8481445
-2,1148682
2,1148682
1,4099121
0,10070801
-3,5247803
-1,5106201
1,0070801
-3,2226562
7,5531006
-4,1290283
-4,3304443
-0,60424805
-0,20141602
-6,3446045
-5,3375244
-1,5106201
-4,8339844
-1,7120361
-3,7261963
-3,6254883
0,20141602
-3,1219482
0,10070801
1,8127441
-4,0283203
-5,9417725
3,7261963
-5,4382324
-4,9346924
-3,0212402
-1,5106201
-3,4240723
-2,9205322
-1,6113281
-2,8198242
0,70495605
4,3304443
-8,963013
2,1148682
0,30212402
0,20141602
3,9276123
2,0141602
-1,1077881
-0,70495605
-2,4169922
-0,50354004
-3,8269043
-0,10070801
3,3233643
0,9063721
-2,1148682
-4,1290283
-7,3516846
-1,5106201
-8,560181
-8,157349
-2,9205322
-3,1219482
-2,5177002
-1,4099121
5,0354004
-7,1502686
-5,2368164
2,3162842
6,8481445
2,3162842
-0,20141602
-4,5318604
-5,7403564
-5,0354004
0,20141602
1,1077881
-2,6184082
4,4311523
2,9205322
3,7261963
-2,2155762
6,7474365
0
-3,0212402
2,0141602
1,4099121
0,9063721
-1,2084961
-0,20141602
0,10070801
-4,6325684
-4,1290283
2,1148682
-0,30212402
-3,6254883
0,10070801
-3,5247803
-3,6254883
-0,50354004
-4,1290283
-5,9417725
-2,7191162
-6,1431885
-3,7261963
-5,8410645
-3,1219482
-1,5106201
-7,9559326
-0,10070801
-3,1219482
0,50354004
2,1148682
-1,4099121
-3,0212402
0,30212402
-10,171509
-5,7403564
-3,9276123
0,30212402
-0,70495605
0,9063721
-13,595581
-3,5247803
-0,10070801
0,50354004
1,1077881
0,30212402
-5,7403564
-2,5177002
-6,6467285
-9,667969
-0,30212402
-3,8269043
-4,7332764
-7,9559326
-6,6467285
-11,883545
-8,459473
-6,6467285
-6,0424805
-5,9417725
-10,977173
-10,272217
-4,5318604
-7,2509766
-11,984253
-2,7191162
-8,963013
-6,2438965
-7,7545166
-7,6538086
-3,5247803
2,4169922
5,9417725
3,7261963
2,0141602
0,30212402
-4,3304443
-0,80566406
0,60424805
2,4169922
-5,1361084
-4,3304443
0,9063721
7,5531006
-0,30212402
-4,1290283
-3,3233643
-0,80566406
-2,8198242
-8,258057
-8,157349
-10,977173
-5,8410645
-2,7191162
0,50354004
-3,0212402
10,473633
-4,1290283
2,0141602
-6,7474365
-3,7261963
-3,9276123
-1,6113281
2,3162842
5,1361084
-2,1148682
-1,3092041
5,7403564
-2,7191162
-2,9205322
-0,50354004
4,3304443
3,3233643
-3,1219482
-4,1290283
-2,1148682
-6,7474365
-6,0424805
4,0283203
-2,3162842
3,8269043
3,2226562
-3,8269043
-0,70495605
-1,4099121
-1,3092041
6,1431885
-0,10070801
2,5177002
-0,40283203
1,7120361
-10,775757
-7,4523926
-5,9417725
-5,2368164
-5,7403564
-6,7474365
-5,3375244
-1,9134521
-11,581421
-4,6325684
1,4099121
5,5389404
1,8127441
-4,0283203
-1,9134521
-0,50354004
6,6467285
8,358765
3,2226562
-7,8552246
-5,0354004
-6,5460205
0,60424805
-1,4099121
-3,5247803
-4,0283203
0,70495605
-1,2084961
4,1290283
1,3092041
4,4311523
1,7120361
-0,9063721
-2,9205322
-2,3162842
-1,8127441
-5,4382324
-6,0424805
-8,660889
-9,869385
-5,7403564
-12,991333
-9,466553
-8,761597
-1,5106201
-9,667969
-12,789917
-7,4523926
-7,3516846
-1,1077881
-7,9559326
-1,0070801
-5,7403564
-2,1148682
-3,4240723
-2,9205322
-6,4453125
-4,7332764
-10,977173
-10,876465
-11,581421
-10,171509
-3,0212402
-6,7474365
-10,574341
-7,3516846
-4,7332764
-8,761597
-2,7191162
-6,3446045
-0,40283203
-7,4523926
-12,185669
-9,466553
-2,6184082
-4,9346924
-3,9276123
-5,2368164
-1,2084961
-1,1077881
-5,1361084
-4,7332764
-18,530273
-7,6538086
-9,869385
-10,473633
-3,9276123
5,0354004
-3,6254883
-6,4453125
-9,063721
-2,7191162
-5,7403564
-0,60424805
-5,3375244
-6,0424805
-3,4240723
-3,0212402
1,9134521
-8,157349
-5,5389404
5,3375244
-5,9417725
4,7332764
-2,6184082
-2,5177002
-6,5460205
-7,0495605
-0,60424805
2,0141602
-1,6113281
-9,567261
-1,9134521
-2,6184082
-0,60424805
-5,8410645
-3,5247803
-3,7261963
-4,7332764
-3,8269043
0,50354004
-9,265137
0,40283203
-1,7120361
-8,560181
1,4099121
-5,1361084
-3,1219482
-12,789917
-7,6538086
-7,9559326
-10,574341
-5,0354004
-6,5460205
-1,5106201
-3,9276123
-3,9276123
-1,6113281
-12,387085
-5,5389404
-8,358765
-1,2084961
-9,567261
-8,963013
-4,5318604
-4,4311523
-0,80566406
-11,682129
-9,365845
-3,8269043
-9,164429
-10,775757
-2,5177002
-0,30212402
3,4240723
-5,6396484
-8,761597
-7,3516846
-1,5106201
-5,5389404
-7,0495605
4,6325684
7,7545166
13,293457
14,804077
13,595581
14,199829
12,387085
16,918945
10,272217
7,8552246
4,0283203
-0,60424805
-1,3092041
1,1077881
-6,4453125
-6,9488525
-17,120361
-9,164429
-7,7545166
-4,3304443
-9,164429
-12,185669
-12,991333
-8,761597
-6,7474365
-2,5177002
-2,3162842
-4,1290283
0,40283203
-5,7403564
-0,50354004
-3,8269043
4,1290283
-2,1148682
4,9346924
3,7261963
-2,6184082
-10,977173
-2,6184082
-4,7332764
-2,9205322
0,70495605
-1,4099121
-7,8552246
-7,3516846
-0,10070801
-4,1290283
4,0283203
6,5460205
-0,70495605
-4,6325684
-0,10070801
-6,9488525
2,5177002
0,60424805
-1,4099121
-0,30212402
-3,4240723
-3,2226562
4,7332764
2,3162842
-5,4382324
-0,50354004
-2,6184082
-5,1361084
-1,4099121
-4,6325684
1,3092041
-0,10070801
-2,5177002
1,4099121
5,7403564
2,7191162
0,40283203
-1,5106201
-1,5106201
-6,9488525
-8,862305
-4,3304443
-3,5247803
-6,7474365
-5,6396484
-0,9063721
-3,7261963
-7,3516846
-6,8481445
3,5247803
-3,5247803
-1,3092041
-2,9205322
-2,3162842
2,6184082
0,40283203
4,4311523
14,804077
15,408325
5,7403564
10,675049
6,6467285
2,8198242
2,0141602
-1,3092041
-7,0495605
1,7120361
1,0070801
1,5106201
-0,20141602
2,1148682
2,7191162
4,3304443
1,7120361
2,9205322
-1,2084961
-6,0424805
-0,20141602
-3,8269043
-1,1077881
2,2155762
3,7261963
-3,7261963
0,10070801
-5,5389404
-2,2155762
-10,876465
-0,50354004
-0,70495605
-2,8198242
-4,2297363
-3,1219482
-2,2155762
1,3092041
-5,6396484
-5,9417725
-5,4382324
-3,7261963
-4,3304443
-3,5247803
-0,10070801
-0,9063721
2,0141602
-2,7191162
1,8127441
-1,1077881
8,660889
0,10070801
-7,7545166
-9,869385
-1,9134521
1,5106201
-4,7332764
-4,7332764
-2,3162842
-1,7120361
-4,7332764
-3,4240723
-4,5318604
-9,466553
-4,7332764
2,3162842
-2,9205322
-8,963013
-6,7474365
-8,358765
-9,869385
-7,7545166
-10,372925
-8,258057
-4,7332764
-6,9488525
0,10070801
-4,5318604
-5,7403564
-7,3516846
-9,869385
-10,171509
-3,0212402
-8,459473
3,9276123
-0,70495605
-9,063721
-1,1077881
2,5177002
-2,9205322
-0,10070801
2,0141602
-0,10070801
1,8127441
-3,7261963
-2,3162842
-6,9488525
-3,2226562
0,20141602
-2,5177002
-2,2155762
-3,0212402
-5,3375244
-3,0212402
-2,4169922
-6,0424805
1,3092041
-0,10070801
-6,1431885
-10,171509
4,6325684
-9,164429
-2,5177002
-3,2226562
-3,5247803
-7,0495605
-7,5531006
-5,1361084
-12,185669
-3,5247803
0,9063721
-5,7403564
-4,1290283
-8,056641
-0,30212402
-3,9276123
1,7120361
-4,0283203
0,50354004
-10,574341
-4,2297363
-4,9346924
-2,1148682
-4,8339844
-5,0354004
-3,1219482
-5,3375244
-4,6325684
-9,063721
-5,9417725
-0,50354004
-3,1219482
-3,8269043
-3,8269043
-11,480713
-5,0354004
-4,1290283
-0,70495605
-2,6184082
2,1148682
-1,5106201
-2,9205322
-1,5106201
-5,0354004
-3,5247803
-4,7332764
-2,1148682
0,60424805
-3,2226562
2,2155762
-2,0141602
8,358765
-1,5106201
-0,20141602
-3,0212402
-3,2226562
-10,574341
3,5247803
-0,20141602
1,2084961
-0,30212402
-4,1290283
0,50354004
-2,8198242
-0,10070801
4,2297363
0,20141602
-3,5247803
-2,3162842
1,3092041
5,0354004
3,7261963
1,6113281
-2,8198242
-0,9063721
-0,40283203
-3,5247803
-3,6254883
-1,9134521
-5,2368164
-1,3092041
0,50354004
-0,10070801
1,3092041
1,0070801
0,9063721
-9,970093
-2,1148682
-8,258057
-5,2368164
-5,9417725
-9,164429
-4,1290283
-2,9205322
-1,9134521
-1,1077881
-3,9276123
-1,6113281
-2,8198242
-1,0070801
0,10070801
2,5177002
1,8127441
2,3162842
-0,70495605
-6,4453125
-2,9205322
2,2155762
-2,7191162
1,7120361
0,30212402
-0,9063721
-6,5460205
-3,9276123
0,10070801
6,5460205
-1,4099121
-1,0070801
-4,4311523
-4,3304443
-5,5389404
-0,50354004
-3,1219482
-6,3446045
2,9205322
-0,70495605
-1,4099121
-1,4099121
-6,7474365
-12,084961
-6,9488525
-2,2155762
-8,963013
-7,7545166
-5,3375244
-11,581421
-9,970093
-0,50354004
-3,5247803
-3,5247803
-9,466553
-12,487793
-9,667969
-2,2155762
3,9276123
6,7474365
12,286377
6,1431885
7,5531006
5,9417725
1,3092041
2,2155762
1,3092041
-1,3092041
6,6467285
-0,70495605
-6,3446045
1,4099121
0,10070801
2,7191162
-1,6113281
-7,1502686
-7,0495605
-9,970093
-12,185669
-16,113281
-12,387085
-10,574341
-10,775757
-3,5247803
-3,5247803
-8,660889
-5,9417725
-10,574341
-6,0424805
-9,869385
-6,9488525
-9,063721
-5,1361084
-6,9488525
-2,9205322
-13,092041
-9,164429
-0,9063721
-3,1219482
1,6113281
-7,2509766
-12,387085
-9,466553
-4,3304443
-6,9488525
-11,077881
-5,1361084
-3,9276123
-7,4523926
-7,9559326
-6,1431885
-9,970093
-8,056641
-2,4169922
-6,0424805
-5,3375244
-1,7120361
-2,5177002
-6,4453125
-10,574341
-4,6325684
-5,3375244
-11,682129
-15,206909
-10,977173
-7,7545166
-8,963013
-3,5247803
-0,50354004
0,70495605
3,2226562
3,7261963
6,8481445
-2,8198242
-2,5177002
3,2226562
3,2226562
-1,2084961
6,7474365
1,0070801
-1,5106201
0,20141602
2,9205322
-1,0070801
-1,9134521
-2,4169922
1,1077881
-4,4311523
-5,0354004
-9,466553
-4,7332764
-2,0141602
-7,2509766
-15,106201
-8,157349
-12,487793
-13,998413
-11,682129
-12,185669
-13,897705
-15,307617
-8,560181
-7,2509766
-11,077881
-3,2226562
-0,60424805
-3,7261963
0,70495605
-4,1290283
7,7545166
7,4523926
2,5177002
4,0283203
2,7191162
10,171509
10,876465
6,9488525
6,9488525
6,5460205
2,5177002
-0,10070801
-5,7403564
-1,1077881
2,3162842
1,8127441
-2,8198242
-5,4382324
1,8127441
-2,3162842
-8,660889
0,70495605
1,1077881
4,9346924
0,20141602
-2,8198242
1,2084961
-5,0354004
-3,1219482
-3,1219482
0,50354004
0,9063721
-5,3375244
-8,560181
-5,7403564
-7,3516846
-1,2084961
-0,50354004
-2,5177002
1,8127441
0,80566406
-6,0424805
-4,8339844
0,30212402
0,20141602
2,7191162
-1,6113281
-4,0283203
-7,7545166
-6,6467285
-0,30212402
-1,8127441
-8,560181
-8,157349
-4,7332764
-1,4099121
-3,2226562
-5,8410645
-1,7120361
0,9063721
9,164429
5,2368164
-0,30212402
0,50354004
5,5389404
-3,4240723
-5,3375244
-5,1361084
-1,1077881
-2,8198242
1,4099121
0,9063721
-2,0141602
-2,2155762
11,380005
2,3162842
-1,9134521
11,380005
7,1502686
3,3233643
6,7474365
1,4099121
-1,1077881
-3,5247803
2,9205322
2,9205322
2,6184082
4,5318604
0,10070801
-1,3092041
2,7191162
14,602661
3,9276123
6,4453125
0,10070801
0,50354004
-3,5247803
9,164429
5,8410645
4,5318604
0,70495605
-3,8269043
3,4240723
-1,4099121
-2,1148682
-2,3162842
-4,6325684
-0,10070801
-2,5177002
-0,10070801
3,2226562
-4,6325684
-8,963013
-3,0212402
-2,1148682
-2,3162842
-3,9276123
-10,171509
-7,8552246
-4,2297363
-3,4240723
1,3092041
2,0141602
-0,50354004
0,50354004
-0,20141602
0,50354004
-4,3304443
-2,4169922
-3,1219482
-2,7191162
0,10070801
-3,4240723
-2,2155762
-8,258057
5,3375244
-3,6254883
-4,7332764
-12,789917
-8,258057
-0,30212402
-1,1077881
-8,358765
-8,560181
-4,1290283
-5,7403564
-8,459473
-5,6396484
-0,9063721
-4,0283203
-3,8269043
-3,2226562
-2,1148682
-3,3233643
1,3092041
1,0070801
-0,20141602
7,8552246
4,6325684
2,3162842
2,0141602
-1,5106201
12,286377
-0,70495605
4,6325684
0
-0,30212402
2,4169922
0,40283203
0,10070801
-7,3516846
-1,9134521
0,70495605
0
1,0070801
-4,3304443
-9,567261
-12,789917
-11,077881
-14,904785
-8,660889
-13,796997
-8,258057
-7,1502686
-3,3233643
2,8198242
2,9205322
6,5460205
-0,70495605
-2,1148682
-6,1431885
-0,70495605
4,9346924
-1,9134521
-5,1361084
-7,3516846
-1,3092041
3,3233643
-4,1290283
-4,0283203
-7,6538086
-0,70495605
-0,40283203
-4,1290283
3,5247803
2,8198242
-8,358765
4,1290283
-0,60424805
-7,6538086
-0,20141602
-0,30212402
-5,1361084
0,30212402
-3,1219482
-3,1219482
-2,0141602
-1,3092041
-4,4311523
-5,5389404
-2,5177002
-5,5389404
-0,9063721
-7,4523926
-5,3375244
-6,8481445
-3,2226562
-2,3162842
-5,2368164
-7,9559326
-5,7403564
-5,5389404
-5,3375244
-10,070801
3,3233643
-0,50354004
-1,3092041
-2,6184082
-1,5106201
0,40283203
-2,3162842
-0,50354004
-4,0283203
0,80566406
-1,4099121
-5,1361084
-4,1290283
-4,3304443
-14,099121
-4,5318604
-2,1148682
0,10070801
0,80566406
-1,5106201
-2,1148682
-4,6325684
-1,2084961
-4,9346924
-2,6184082
-1,5106201
3,4240723
4,7332764
0,9063721
-0,60424805
-1,7120361
2,5177002
4,4311523
2,4169922
-7,1502686
0,70495605
2,9205322
3,0212402
-0,50354004
-6,7474365
-1,5106201
-7,7545166
-2,2155762
1,0070801
-1,0070801
-0,9063721
-0,10070801
-1,5106201
-4,2297363
-5,1361084
-8,963013
-7,9559326
9,466553
-1,9134521
3,0212402
7,3516846
9,365845
3,5247803
9,667969
8,560181
14,501953
-1,5106201
-0,70495605
-0,9063721
-2,3162842
-2,1148682
-4,5318604
-5,1361084
-2,8198242
-3,4240723
-2,4169922
-3,5247803
-2,5177002
0,9063721
-0,9063721
-1,1077881
-1,0070801
-2,0141602
-1,2084961
-3,5247803
-11,581421
-1,9134521
-0,10070801
-2,7191162
-4,9346924
-0,50354004
-2,5177002
0,9063721
-3,7261963
-6,2438965
-6,3446045
-7,3516846
-0,10070801
0,70495605
4,6325684
-2,8198242
-6,2438965
2,4169922
-5,7403564
-7,9559326
-5,1361084
-5,9417725
-2,3162842
-7,0495605
-5,2368164
-0,20141602
-1,5106201
-0,60424805
-8,560181
-2,1148682
-8,157349
-15,106201
-6,7474365
-2,3162842
-4,1290283
-8,560181
-0,30212402
-7,7545166
-17,120361
-15,106201
-9,063721
-12,588501
-7,3516846
-7,4523926
-5,6396484
-8,459473
0,20141602
0,10070801
2,8198242
3,3233643
6,7474365
0,9063721
4,4311523
3,5247803
8,157349
12,789917
17,825317
8,056641
-5,3375244
-15,811157
-17,120361
-14,804077
-19,940186
-14,703369
-15,206909
-15,811157
-13,796997
-17,926025
-7,5531006
-11,581421
-4,5318604
0,30212402
1,3092041
-4,1290283
-5,3375244
-6,2438965
-4,7332764
0,10070801
0
-3,7261963
-6,7474365
-6,2438965
1,5106201
-4,1290283
-5,5389404
-7,3516846
-6,2438965
-5,5389404
-0,50354004
-2,9205322
-2,1148682
0,70495605
0,60424805
3,5247803
-4,3304443
-1,4099121
-0,9063721
-2,5177002
2,2155762
-1,9134521
4,5318604
2,6184082
-1,9134521
-0,10070801
0,80566406
4,3304443
10,171509
-4,5318604
-5,5389404
2,2155762
-4,5318604
-4,8339844
-3,1219482
-6,8481445
-3,4240723
-7,9559326
-12,387085
-8,761597
-14,804077
-6,9488525
-7,4523926
-4,4311523
-2,6184082
2,1148682
0,70495605
-1,1077881
-3,5247803
-8,258057
-1,9134521
-2,8198242
1,8127441
3,2226562
-1,3092041
2,6184082
2,3162842
-4,1290283
-1,7120361
-2,4169922
-2,6184082
-7,8552246
-7,1502686
-4,2297363
2,0141602
-1,4099121
1,5106201
-1,8127441
-0,60424805
-4,3304443
-4,7332764
-7,4523926
-12,689209
-12,084961
-18,026733
-7,8552246
-5,6396484
-5,5389404
-6,1431885
-2,8198242
-2,3162842
-5,3375244
-2,7191162
-4,7332764
-5,1361084
-2,7191162
-2,9205322
1,2084961
-2,9205322
-2,3162842
-0,60424805
-1,1077881
-2,4169922
-7,1502686
-6,1431885
-4,3304443
-9,365845
-9,265137
-2,8198242
-1,4099121
-1,8127441
0,10070801
-3,4240723
-0,9063721
-2,1148682
1,7120361
-2,2155762
-5,4382324
-4,3304443
-2,8198242
-5,3375244
-0,50354004
-8,056641
-0,60424805
2,6184082
-2,5177002
4,1290283
0,60424805
-5,9417725
-0,20141602
0
1,2084961
-7,0495605
-1,8127441
-0,50354004
-0,60424805
-2,4169922
-4,1290283
-0,80566406
-5,5389404
0
5,0354004
14,804077
1,9134521
0,40283203
0,40283203
6,5460205
-2,4169922
-6,0424805
0,20141602
0,10070801
-1,8127441
-10,272217
-0,40283203
-1,3092041
0,80566406
-4,8339844
4,8339844
-0,9063721
5,9417725
-4,3304443
-5,7403564
-10,272217
-6,6467285
-2,1148682
-0,70495605
-3,8269043
-6,7474365
-3,4240723
-6,3446045
-7,0495605
-2,6184082
-4,6325684
-2,9205322
-2,7191162
-8,560181
-1,1077881
-1,3092041
-4,8339844
-3,2226562
-2,7191162
0,80566406
-5,0354004
-4,0283203
-1,1077881
2,7191162
-2,5177002
0,10070801
-3,5247803
-2,1148682
-4,7332764
-0,10070801
-8,358765
-3,6254883
-2,9205322
2,2155762
6,0424805
-6,9488525
2,7191162
0,80566406
-0,60424805
1,2084961
0,10070801
-1,9134521
0,70495605
0,9063721
-0,9063721
1,6113281
-0,20141602
-0,20141602
-0,40283203
-6,2438965
-4,2297363
-3,7261963
-5,6396484
-0,20141602
-4,5318604
1,9134521
1,9134521
-1,7120361
0,20141602
-5,9417725
-1,9134521
-0,50354004
0,80566406
-3,7261963
-3,8269043
1,2084961
-0,9063721
-0,50354004
6,2438965
2,1148682
-0,50354004
-0,20141602
-3,7261963
-0,10070801
-0,70495605
-2,9205322
-4,0283203
-2,1148682
2,6184082
1,7120361
-6,0424805
-1,0070801
-5,1361084
-2,3162842
-9,365845
-14,904785
-12,084961
-5,0354004
-10,574341
-1,4099121
-2,0141602
-0,9063721
0,20141602
2,4169922
0,50354004
2,0141602
-1,2084961
-2,3162842
-1,1077881
-1,5106201
0,30212402
-4,3304443
-7,5531006
-1,9134521
1,7120361
-5,0354004
-6,7474365
-10,372925
-7,3516846
-1,0070801
0,70495605
0,80566406
4,8339844
0,50354004
-2,5177002
-3,9276123
2,2155762
-0,50354004
-2,6184082
-1,8127441
-1,4099121
-2,7191162
1,4099121
2,4169922
-0,50354004
-5,8410645
4,3304443
-2,8198242
-6,2438965
6,4453125
1,3092041
-3,4240723
-2,1148682
-8,459473
-7,9559326
-2,3162842
-6,4453125
-1,5106201
4,0283203
0,20141602
-0,10070801
-2,8198242
0,10070801
-3,1219482
-3,7261963
-4,4311523
-1,9134521
-3,5247803
-3,1219482
-6,8481445
-1,2084961
-1,1077881
-1,3092041
2,0141602
7,4523926
2,1148682
-1,2084961
-0,30212402
-2,0141602
-2,5177002
-1,4099121
2,8198242
0,60424805
1,8127441
-4,1290283
-5,2368164
-3,1219482
-8,560181
-1,8127441
-4,7332764
-12,689209
-5,8410645
-6,9488525
-7,7545166
-6,7474365
0,10070801
-4,7332764
-0,10070801
-1,8127441
-4,7332764
-8,761597
-4,5318604
-4,7332764
-5,6396484
-7,4523926
-5,9417725
-3,7261963
-2,5177002
-8,358765
0
-5,1361084
4,1290283
-1,4099121
-4,0283203
-6,1431885
-5,6396484
-7,5531006
-6,2438965
-4,6325684
-15,106201
-6,9488525
-14,602661
-4,5318604
-9,466553
-0,9063721
-5,8410645
-6,1431885
-5,7403564
9,567261
1,0070801
4,1290283
-0,60424805
-3,4240723
-6,4453125
-3,1219482
-2,4169922
-0,50354004
-0,10070801
7,8552246
3,0212402
2,8198242
-1,7120361
-6,1431885
-9,567261
-11,984253
-10,372925
-6,0424805
-7,5531006
-7,5531006
-0,10070801
-0,70495605
-3,5247803
0,30212402
4,8339844
5,3375244
-4,1290283
-3,7261963
-1,1077881
2,6184082
0,40283203
-4,8339844
-3,0212402
-7,1502686
-5,3375244
-4,7332764
1,5106201
-7,9559326
-7,7545166
-8,963013
-6,3446045
-3,3233643
-3,0212402
-7,0495605
-2,1148682
-1,6113281
-3,1219482
1,7120361
-2,1148682
1,0070801
2,3162842
-6,1431885
-10,272217
-7,1502686
-7,9559326
-13,998413
-5,4382324
-0,40283203
-10,272217
-0,9063721
-9,869385
-0,10070801
-9,164429
-1,6113281
-1,1077881
-0,10070801
8,157349
-1,2084961
-2,3162842
-0,30212402
-1,9134521
-1,1077881
0,60424805
3,8269043
-0,70495605
0,70495605
-4,1290283
-1,5106201
4,0283203
0,30212402
-4,8339844
-3,2226562
-9,970093
-8,358765
-10,775757
-7,9559326
-5,1361084
-12,185669
-2,9205322
-2,5177002
-1,9134521
-10,171509
-6,8481445
-7,1502686
-15,911865
-8,358765
-4,0283203
-11,279297
-16,818237
-12,286377
-4,5318604
-8,056641
-5,5389404
4,5318604
-3,1219482
0,40283203
-1,9134521
0,9063721
2,9205322
-0,50354004
0,9063721
-2,5177002
-4,8339844
-2,5177002
1,4099121
-1,0070801
-7,5531006
-1,9134521
-7,3516846
-6,0424805
-1,8127441
-2,4169922
-1,2084961
-4,1290283
-2,5177002
-8,056641
-2,4169922
2,2155762
0,9063721
1,4099121
-2,2155762
-2,0141602
-4,1290283
9,667969
0,30212402
-1,2084961
-4,5318604
-3,7261963
0,50354004
-7,9559326
-2,4169922
-9,768677
-3,6254883
-5,1361084
-4,7332764
-6,1431885
-6,3446045
-8,560181
-2,2155762
-4,7332764
-3,1219482
-16,818237
-10,372925
-5,6396484
-1,9134521
-2,9205322
-3,3233643
-4,8339844
-3,4240723
-5,2368164
-6,9488525
-3,9276123
-0,80566406
3,5247803
-2,5177002
3,9276123
-1,0070801
3,6254883
0,9063721
-6,8481445
-1,5106201
-5,9417725
-3,5247803
-2,5177002
-4,3304443
-2,5177002
-3,5247803
-8,560181
-5,6396484
-6,6467285
-7,4523926
-0,40283203
-10,070801
-9,164429
-3,5247803
-3,8269043
-0,50354004
1,4099121
-2,9205322
-6,3446045
-5,7403564
-5,8410645
-1,7120361
-6,7474365
-5,2368164
-5,9417725
5,7403564
-7,1502686
-8,963013
-3,5247803
-2,3162842
-3,5247803
-4,1290283
-4,1290283
-8,560181
-1,0070801
-0,10070801
-14,099121
-6,2438965
0,20141602
-8,157349
-1,5106201
-11,782837
-4,2297363
-13,394165
-9,667969
-6,9488525
-1,2084961
-5,3375244
-5,7403564
-0,9063721
-6,4453125
-2,3162842
1,0070801
-5,3375244
-6,7474365
-2,3162842
4,1290283
-3,0212402
-0,80566406
-0,60424805
-3,6254883
0,20141602
-8,963013
-3,9276123
-1,2084961
-3,2226562
-1,7120361
-3,2226562
-2,5177002
4,3304443
5,8410645
-4,6325684
0,60424805
-2,7191162
-6,3446045
-1,9134521
-1,1077881
-3,1219482
-1,3092041
1,1077881
-0,30212402
1,7120361
3,2226562
-0,20141602
-5,4382324
-6,1431885
-2,3162842
-7,8552246
-6,3446045
2,3162842
2,9205322
7,6538086
0,50354004
-1,3092041
-2,7191162
-2,1148682
-2,8198242
-2,8198242
-3,0212402
4,5318604
-1,0070801
-0,10070801
2,3162842
-4,4311523
1,5106201
6,1431885
-5,7403564
-12,588501
-9,869385
-9,567261
-1,5106201
-9,869385
-8,761597
-3,4240723
-7,1502686
-2,5177002
-10,171509
-5,3375244
-10,372925
-9,164429
-8,560181
-7,8552246
-7,7545166
-10,272217
-8,862305
-6,7474365
-7,0495605
-2,1148682
-4,1290283
-6,1431885
-10,372925
-9,970093
1,4099121
-10,977173
-9,365845
-10,775757
-13,595581
-6,1431885
-4,8339844
-2,1148682
-6,1431885
-3,7261963
-3,0212402
-3,7261963
1,3092041
5,5389404
6,7474365
8,157349
5,1361084
5,2368164
10,574341
7,8552246
4,6325684
0,10070801
-0,10070801
-2,0141602
-0,50354004
2,4169922
6,2438965
12,890625
4,7332764
18,832397
25,78125
42,297363
59,518433
52,670288
22,659302
50,958252
198,29407
351,47095
418,34106
420,35522
377,95715
290,74402
231,62842
214,70947
294,67163
422,3694
471,31348
426,59912
341,29944
215,31372
90,234375
87,51526
238,57727
299,00208
286,11145
211,58752
233,64258
321,15784
375,54016
390,9485
355,19714
287,21924
242,60559
259,62524
262,54578
185,60486
86,8103
33,636475
2,1148682
-48,03772
-0,30212402
187,01477
388,22937
483,39844
366,77856
243,00842
129,10767
67,07153
57,302856
120,34607
180,16663
92,752075
-39,175415
-161,53564
-63,546753
27,694702
16,415405
198,6969
319,2444
399,00513
477,7588
558,728
679,57764
718,1488
682,901
575,34485
433,04443
275,03357
121,051025
-29,608154
-184,09424
-303,43323
-481,18286
-655,1056
-796,70105
-939,3036
-1046,0541
-1077,0721
-1055,1178
-963,2721
-821,67664
-755,31006
-696,4966
-621,4691
-524,3866
-528,4149
-496,5912
-377,65503
-197,58911
-161,53564
-210,0769
-197,28699
-107,55615
-153,17688
-166,16821
7,3516846
187,01477
180,36804
71,30127
-78,85437
-197,18628
-256,4026
-257,10754
-251,16577
-249,65515
-210,88257
-178,45459
-115,008545
-61,532593
-83,688354
-139,5813
-168,98804
-128,60413
-77,44446
-83,78906
-77,645874
-66,36658
-4,6325684
30,715942
-43,606567
-110,77881
-155,59387
-214,60876
-268,68896
-330,32227
-395,78247
-447,8485
-457,11365
-453,58887
-433,24585
-417,33398
-380,17273
-323,2727
-238,9801
-158,4137
-94,66553
-57,302856
-49,346924
-55,288696
-55,490112
-46,92993
-30,010986
-25,579834
-18,429565
-31,723022
-32,025146
-14,501953
3,5247803
6,1431885
19,839478
27,694702
26,385498
34,94568
27,593994
24,27063
20,343018
28,601074
29,30603
31,82373
32,730103
40,48462
44,0094
24,874878
-40,182495
-83,184814
-119,036865
-144,31458
-164,95972
-171,20361
-194,06433
-200,61035
-216,42151
-211,99036
-187,92114
-174,92981
-103,02429
-79,2572
-97,98889
-122,76306
-91,64429
-31,018066
6,5460205
22,76001
51,763916
142,80396
234,95178
287,31995
336,06262
332,83997
359,22546
679,4769
885,022
898,819
799,42017
806,369
1046,9604
1125,2106
987,3413
663,0615
304,84314
115,10925
-47,735596
-131,22253
-224,17603
-307,66296
-405,34973
-464,66675
-413,00354
-425,69275
-374,13025
-363,95874
-216,72363
31,622314
284,80225
463,55896
632,6477
710,09216
711,30066
624,38965
496,28906
310,38208
137,66785
-31,82373
-229,71497
-437,07275
-553,0884
-593,06946
-535,5652
-524,7894
-512,8052
-526,40076
-528,61633
-510,28748
-461,6455
-418,03894
-356,80847
-271,40808
-135,65369
3,1219482
82,88269
113,29651
88,0188
150,75989
275,63782
371,41113
380,57556
305,4474
260,12878
205,24292
160,42786
87,11243
-21,853638
-105,84412
-129,20837
-132,73315
-142,40112
-147,83936
-168,28308
-158,31299
-149,34998
-144,91882
-127,194214
-123,87085
-147,03369
-170,19653
-194,36646
-219,24133
-216,2201
-190,94238
-165,36255
-158,21228
-154,48608
-122,36023
-110,07385
-96,17615
-71,30127
-31,82373
27,392578
72,81189
101,815796
38,671875
-17,825317
84,39331
203,32947
290,3412
297,8943
227,49939
145,32166
-31,622314
-411,3922
-723,58704
-762,66174
-522,37244
-302,62756
-250,3601
-321,8628
-396,286
-359,32617
-366,87927
-383,19397
-282,9895
-24,975586
309,57642
719,96155
1004,26025
1160,257
1158,6456
1047,464
835,1715
651,6815
534,256
441,70532
355,09644
248,14453
130,92041
-27,996826
-192,95654
-301,21765
-336,46545
-317,12952
-257,40967
-213,40027
-190,43884
-168,18237
-147,2351
-128,90625
-112,490845
-81,27136
-62,64038
-70,09277
-82,37915
-90,234375
-77,24304
-70,3949
-69,992065
-73,31543
-65,460205
-58,71277
-65,76233
-60,928345
-58,914185
-53,979492
-54,281616
-47,03064
-43,807983
-43,40515
-46,728516
-47,735596
-50,958252
-48,239136
-51,663208
-46,02356
-39,074707
-44,41223
-39,98108
-41,592407
-35,247803
-29,003906
-22,860718
-28,399658
-25,579834
-16,415405
-21,853638
-20,443726
-21,551514
-18,026733
-12,286377
-15,307617
-17,22107
0,60424805
-10,272217
-4,0283203
-4,3304443
-1,8127441
-0,30212402
-3,4240723
0,10070801
-2,5177002
1,1077881
-8,157349
-0,50354004
9,265137
11,984253
8,963013
8,157349
9,063721
15,408325
10,574341
15,408325
20,141602
25,78125
27,79541
20,645142
25,479126
19,134521
13,998413
1,8127441
3,7261963
2,5177002
-6,1431885
-6,2438965
-13,394165
-55,08728
-77,142334
-79,76074
-82,47986
-93,35632
-103,02429
-94,56482
-81,674194
-68,38074
-45,318604
-34,44214
-16,818237
2,9205322
27,191162
42,599487
69,89136
96,67969
104,13208
131,12183
147,94006
154,78821
149,24927
125,38147
99,70093
60,928345
44,613647
25,881958
15,106201
15,911865
18,22815
9,063721
18,127441
8,056641
0,70495605
-0,9063721
8,761597
8,862305
3,5247803
6,1431885
6,7474365
-0,9063721
-3,9276123
-0,9063721
-3,8269043
-14,099121
-15,609741
-7,9559326
-5,9417725
3,2226562
-7,8552246
-5,5389404
-5,4382324
-6,1431885
-0,9063721
-0,60424805
2,4169922
4,1290283
5,4382324
5,7403564
5,4382324
2,8198242
8,358765
0,70495605
-4,1290283
0,70495605
-9,265137
-13,998413
-11,480713
-10,372925
-9,567261
-13,494873
4,5318604
-10,574341
-12,387085
-4,5318604
-2,7191162
-5,9417725
2,1148682
5,7403564
17,926025
24,874878
32,226562
31,723022
39,98108
18,429565
10,171509
-1,8127441
6,9488525
8,761597
8,560181
8,560181
4,5318604
-4,6325684
-1,3092041
-2,7191162
-1,4099121
-0,9063721
-5,9417725
-1,3092041
12,789917
21,350098
28,80249
33,9386
39,37683
32,93152
27,29187
25,27771
17,926025
20,645142
9,164429
1,3092041
-8,358765
-16,415405
-18,429565
-4,6325684
-5,6396484
4,8339844
6,8481445
8,761597
6,5460205
8,459473
1,3092041
6,9488525
2,4169922
3,9276123
6,6467285
5,8410645
-0,70495605
2,4169922
-0,70495605
3,7261963
8,761597
4,3304443
-3,8269043
5,9417725
8,258057
-1,9134521
-0,9063721
0,80566406
-3,0212402
-4,0283203
-7,0495605
-0,70495605
-7,8552246
0,10070801
-0,70495605
-0,80566406
4,9346924
1,9134521
0,20141602
-0,9063721
1,7120361
2,3162842
0,70495605
-0,60424805
5,3375244
10,977173
12,991333
7,1502686
3,6254883
0,9063721
-6,7474365
-11,178589
-13,192749
-5,3375244
-0,70495605
5,4382324
5,0354004
2,2155762
-0,70495605
2,0141602
2,7191162
13,192749
15,206909
17,825317
28,500366
21,047974
16,818237
19,033813
12,387085
11,077881
8,560181
12,084961
8,963013
10,171509
14,300537
18,832397
22,055054
18,530273
8,862305
8,258057
15,106201
12,387085
11,178589
14,703369
21,350098
19,134521
6,7474365
-0,60424805
-15,106201
-44,41223
-66,6687
-57,10144
-45,217896
-37,86621
-36,35559
-29,30603
-31,723022
-30,31311
-22,357178
-9,164429
4,5318604
17,120361
21,350098
15,710449
3,0212402
15,005493
12,487793
11,984253
10,070801
-1,1077881
-0,30212402
-5,5389404
-10,171509
-8,157349
-8,560181
-12,689209
-10,574341
-14,199829
-24,874878
-30,212402
-23,26355
-27,090454
-26,989746
-31,82373
-20,645142
-22,76001
-11,984253
-3,9276123
2,7191162
2,1148682
-1,9134521
-1,1077881
7,3516846
0,60424805
1,3092041
-5,4382324
-6,4453125
-1,5106201
-8,761597
-1,8127441
0,50354004
2,9205322
0,10070801
3,3233643
1,9134521
9,768677
10,372925
12,387085
3,3233643
2,3162842
-0,60424805
-5,9417725
-4,4311523
-4,8339844
-7,1502686
-12,588501
-11,682129
-9,164429
-9,970093
-7,1502686
-14,401245
-12,487793
-19,134521
-7,0495605
-13,897705
-9,567261
-8,459473
-1,9134521
7,9559326
6,1431885
5,3375244
1,3092041
-5,1361084
-9,365845
4,0283203
-6,7474365
-6,1431885
5,7403564
-1,9134521
-6,1431885
-7,3516846
2,8198242
-4,6325684
-5,2368164
-8,761597
-11,984253
-13,394165
-23,062134
-13,394165
-9,567261
-12,387085
0,50354004
1,2084961
3,4240723
1,0070801
1,0070801
6,0424805
7,8552246
12,185669
11,682129
6,7474365
5,9417725
5,8410645
9,768677
10,372925
5,3375244
6,2438965
9,365845
11,380005
10,372925
1,3092041
0,9063721
4,3304443
5,6396484
2,8198242
6,5460205
9,365845
12,084961
11,984253
5,7403564
10,372925
5,0354004
9,063721
8,660889
12,991333
10,070801
8,560181
14,804077
13,998413
16,113281
3,7261963
-1,1077881
-4,5318604
1,0070801
2,0141602
4,3304443
1,4099121
-1,0070801
-8,157349
-16,818237
-15,811157
-14,199829
-11,581421
-17,72461
-10,675049
-12,185669
-5,9417725
-9,265137
-16,415405
-14,904785
-14,804077
-10,171509
-13,897705
-11,581421
-7,3516846
-5,7403564
-8,963013
4,1290283
3,0212402
1,0070801
4,9346924
3,0212402
-3,2226562
-8,358765
-7,2509766
2,3162842
0,70495605
1,2084961
5,5389404
-3,9276123
-4,1290283
-2,4169922
-5,4382324
1,0070801
7,1502686
4,6325684
9,667969
11,077881
6,4453125
12,084961
10,574341
13,394165
7,3516846
6,8481445
5,1361084
2,2155762
8,056641
-0,40283203
-4,7332764
-11,581421
-12,084961
-15,408325
-10,977173
-7,1502686
-18,933105
-10,171509
-11,984253
-11,581421
-8,761597
-8,963013
4,3304443
5,4382324
8,963013
4,2297363
-2,6184082
-18,328857
-18,429565
-25,78125
-25,378418
-23,062134
-22,457886
-32,730103
-18,630981
-15,005493
-10,372925
-16,314697
-7,2509766
-6,3446045
-4,9346924
2,0141602
0,80566406
-2,0141602
-4,5318604
-4,0283203
-7,5531006
-12,286377
-13,796997
-16,71753
-17,321777
-13,796997
-16,21399
-18,530273
-20,24231
-21,148682
-15,911865
-10,070801
-4,3304443
5,3375244
-0,50354004
3,5247803
8,157349
3,3233643
-2,9205322
-4,3304443
-14,401245
-15,609741
4,9346924
20,24231
24,472046
36,4563
43,807983
27,79541
16,314697
18,429565
16,616821
18,530273
18,127441
6,9488525
-1,0070801
-22,055054
-51,159668
-67,474365
-50,454712
-36,254883
-20,443726
-14,199829
-13,998413
-13,796997
-13,494873
-3,7261963
1,4099121
-4,5318604
-11,883545
-17,019653
-18,832397
-19,436646
-18,22815
-13,998413
-15,811157
-19,335938
-19,335938
-16,818237
-25,479126
-16,012573
-7,9559326
-9,869385
1,8127441
3,6254883
5,0354004
9,164429
21,450806
12,286377
23,666382
13,796997
11,984253
3,7261963
0,70495605
-12,387085
-7,3516846
-1,5106201
2,1148682
-2,7191162
-6,3446045
-2,8198242
-4,5318604
-3,9276123
-9,970093
3,2226562
5,9417725
2,3162842
4,3304443
4,5318604
3,8269043
2,0141602
5,7403564
5,5389404
7,3516846
-2,2155762
-7,4523926
-5,5389404
-8,157349
0,60424805
-2,5177002
-2,3162842
-4,8339844
3,3233643
-0,9063721
-1,0070801
-3,0212402
-1,7120361
-5,1361084
-1,5106201
1,9134521
-4,1290283
-0,20141602
-6,6467285
-6,3446045
-10,171509
-2,7191162
-2,1148682
1,7120361
5,4382324
-1,4099121
-1,2084961
2,8198242
-2,0141602
1,3092041
3,4240723
0
0,30212402
-0,40283203
0,40283203
-1,2084961
-1,4099121
2,4169922
0,9063721
-5,2368164
-2,5177002
-1,6113281
-3,5247803
1,1077881
2,7191162
-6,8481445
-0,50354004
10,070801
-4,3304443
-2,1148682
2,9205322
0,40283203
-5,4382324
-6,0424805
1,4099121
-7,2509766
2,6184082
0,50354004
-3,1219482
-2,4169922
-4,6325684
-0,50354004
4,3304443
2,9205322
1,8127441
-0,9063721
5,2368164
16,113281
3,0212402
6,1431885
4,6325684
-8,660889
-5,5389404
-4,3304443
1,8127441
2,7191162
3,7261963
-9,970093
-6,9488525
-5,7403564
-2,4169922
-0,60424805
-2,1148682
3,2226562
14,300537
-0,70495605
0,40283203
-4,1290283
-2,2155762
-0,60424805
-13,897705
-11,984253
-7,1502686
-2,7191162
-6,7474365
-8,258057
-10,372925
-11,782837
-9,164429
-14,501953
-10,070801
-11,581421
-10,171509
-8,459473
-4,5318604
-0,80566406
6,2438965
11,077881
10,171509
5,7403564
2,6184082
1,3092041
8,258057
6,4453125
5,7403564
2,7191162
2,6184082
-6,1431885
-16,21399
-21,148682
-26,486206
-14,300537
-15,408325
-25,076294
-23,26355
-26,184082
-30,413818
-30,615234
-25,076294
-23,76709
-27,090454
-29,708862
-23,867798
-18,933105
-8,358765
-10,775757
-5,7403564
1,3092041
0,50354004
0,70495605
8,660889
5,9417725
4,3304443
9,768677
3,4240723
-0,60424805
3,0212402
4,8339844
7,3516846
1,3092041
6,6467285
1,5106201
-0,10070801
9,768677
4,5318604
0,9063721
3,6254883
3,4240723
-2,5177002
-2,0141602
-2,7191162
-12,487793
0,50354004
-2,5177002
0,70495605
11,178589
2,0141602
-2,1148682
-11,682129
-2,7191162
-4,1290283
-7,2509766
-12,185669
-6,3446045
-5,7403564
-6,7474365
-0,9063721
-5,0354004
-2,8198242
-4,4311523
-0,20141602
-7,3516846
-6,8481445
-5,3375244
1,1077881
-2,2155762
-4,5318604
4,1290283
8,358765
11,178589
5,7403564
7,1502686
6,5460205
6,5460205
6,0424805
1,5106201
4,3304443
1,3092041
-4,8339844
-7,1502686
-8,358765
-15,307617
-16,012573
-17,120361
-23,666382
-10,775757
-6,6467285
-2,5177002
3,4240723
6,6467285
6,1431885
9,869385
12,185669
5,6396484
2,7191162
-3,3233643
-5,1361084
-2,2155762
-5,1361084
-4,3304443
-6,9488525
-1,0070801
-1,0070801
-1,7120361
0,60424805
5,3375244
4,0283203
-1,3092041
0,50354004
0,10070801
3,1219482
1,5106201
-4,1290283
2,3162842
-3,1219482
1,8127441
-6,3446045
0,70495605
-0,9063721
0,30212402
1,1077881
-1,4099121
2,2155762
-1,9134521
-2,6184082
-7,2509766
-3,7261963
-3,9276123
-5,0354004
-8,358765
-0,80566406
-1,2084961
-0,9063721
-7,3516846
-5,5389404
-1,8127441
-4,1290283
-5,7403564
-4,8339844
-9,063721
-14,401245
-8,761597
-7,1502686
-5,0354004
-4,2297363
-4,4311523
-7,0495605
1,6113281
2,0141602
-2,2155762
7,9559326
-4,7332764
0,70495605
0,70495605
2,9205322
-4,3304443
-2,4169922
1,2084961
1,2084961
-1,5106201
-5,9417725
5,1361084
0,10070801
-0,10070801
-0,9063721
1,6113281
0,60424805
-2,6184082
-8,056641
-5,8410645
-3,8269043
-0,70495605
-8,862305
-6,3446045
-2,7191162
-0,10070801
-7,3516846
-10,372925
-2,7191162
-8,157349
-0,40283203
-2,3162842
-6,2438965
-9,466553
-9,466553
-16,21399
-6,4453125
-10,775757
-12,588501
-11,077881
-16,918945
-15,509033
-8,560181
-10,171509
-2,7191162
-0,9063721
-0,50354004
-0,10070801
-1,9134521
0,30212402
0,70495605
-1,1077881
-4,1290283
5,5389404
9,365845
12,387085
10,070801
-0,10070801
2,5177002
-2,5177002
1,3092041
6,7474365
14,703369
15,005493
6,6467285
4,9346924
-5,1361084
-0,40283203
-7,5531006
-11,279297
-10,775757
-7,7545166
0,10070801
-7,1502686
-3,3233643
-2,8198242
4,4311523
-0,9063721
-3,9276123
-0,20141602
0,50354004
0,50354004
4,8339844
2,1148682
1,3092041
-10,876465
-0,30212402
-6,4453125
-2,9205322
-3,9276123
-2,5177002
3,4240723
-0,70495605
0,30212402
2,7191162
-3,6254883
6,1431885
-0,70495605
2,3162842
0,20141602
-4,3304443
-13,494873
-7,0495605
-20,846558
-13,796997
-9,063721
-9,466553
-7,4523926
-6,1431885
-4,8339844
-8,862305
-0,60424805
-4,3304443
-2,5177002
-5,6396484
-2,8198242
-5,3375244
-3,1219482
-1,7120361
-2,1148682
-5,1361084
-1,9134521
2,6184082
2,5177002
-2,6184082
-1,8127441
-1,5106201
-5,7403564
-1,3092041
0,9063721
-4,0283203
-1,9134521
-1,9134521
-1,9134521
-4,0283203
-1,1077881
-6,8481445
-8,660889
-7,0495605
-3,8269043
-8,358765
-0,9063721
0,70495605
-2,9205322
-3,1219482
-5,7403564
-4,3304443
4,6325684
-9,466553
-14,904785
-5,0354004
-1,0070801
-0,10070801
-1,5106201
-3,5247803
5,4382324
-0,40283203
3,0212402
-2,5177002
-4,4311523
-3,0212402
-1,7120361
-4,7332764
-3,9276123
-3,7261963
-0,70495605
-1,4099121
-3,4240723
-1,9134521
3,0212402
0,70495605
3,0212402
-1,6113281
1,1077881
-2,3162842
1,3092041
1,6113281
-4,1290283
-4,5318604
-6,6467285
-5,6396484
-5,2368164
-12,185669
-3,1219482
-5,1361084
-5,5389404
-7,9559326
-12,387085
-7,1502686
2,7191162
-5,6396484
-6,7474365
-1,9134521
5,3375244
-13,192749
-11,581421
-0,60424805
0,70495605
0,20141602
8,459473
5,1361084
7,7545166
3,9276123
1,3092041
7,7545166
2,8198242
-3,5247803
-1,9134521
-5,7403564
-3,5247803
-2,5177002
0,9063721
2,8198242
-3,2226562
1,6113281
-3,6254883
-6,9488525
-0,30212402
0,30212402
-2,8198242
-6,8481445
-8,459473
-10,372925
-8,258057
-5,7403564
-4,1290283
-0,20141602
13,595581
2,7191162
1,5106201
-2,2155762
-0,10070801
5,4382324
-2,7191162
0,9063721
2,9205322
5,3375244
2,8198242
9,970093
7,0495605
5,7403564
2,8198242
3,3233643
6,9488525
5,7403564
8,963013
7,1502686
2,8198242
1,4099121
2,4169922
2,3162842
-3,9276123
-13,998413
-12,286377
-12,991333
-5,7403564
-13,494873
-11,782837
-6,1431885
-3,7261963
-8,660889
-8,358765
-7,7545166
-7,6538086
-5,9417725
-6,6467285
-2,0141602
-4,3304443
-8,560181
-3,5247803
-6,7474365
-15,206909
-10,372925
-4,4311523
-3,4240723
7,3516846
4,3304443
-5,9417725
-0,9063721
1,7120361
3,9276123
-1,3092041
-2,5177002
-5,1361084
-3,2226562
-2,0141602
1,5106201
-3,0212402
-4,7332764
-2,3162842
-8,963013
-5,1361084
-2,9205322
-1,5106201
-0,30212402
-2,8198242
-6,9488525
-8,963013
-8,459473
-6,9488525
-7,6538086
-5,9417725
-2,3162842
-1,5106201
4,9346924
0
-7,2509766
0,80566406
0,70495605
3,3233643
-7,2509766
-12,789917
-3,6254883
-5,8410645
-1,3092041
-7,7545166
-10,574341
-1,4099121
2,1148682
0,80566406
-0,80566406
-3,5247803
3,2226562
0,20141602
1,9134521
2,5177002
-1,7120361
5,3375244
0
-4,9346924
-4,1290283
-2,1148682
-0,50354004
-3,5247803
-10,775757
-9,164429
-10,977173
-12,991333
-11,380005
-7,5531006
-4,7332764
-10,070801
-12,185669
-7,1502686
-17,019653
-7,1502686
-6,5460205
-8,862305
-0,9063721
-0,30212402
-0,30212402
2,1148682
-0,9063721
4,5318604
-9,063721
-1,3092041
-3,3233643
2,0141602
-3,7261963
1,1077881
-1,1077881
-0,10070801
-4,2297363
-2,7191162
-3,4240723
0,9063721
-15,206909
-4,3304443
0,10070801
1,8127441
-1,5106201
-5,6396484
-0,10070801
-7,1502686
-0,50354004
-2,1148682
-2,6184082
-2,2155762
-6,6467285
-12,588501
-1,7120361
-4,3304443
-6,1431885
-2,2155762
-3,3233643
1,3092041
-5,3375244
-8,157349
-3,0212402
-4,5318604
2,9205322
-2,7191162
-6,0424805
-6,4453125
-7,3516846
0,40283203
-0,20141602
-3,0212402
-3,9276123
-0,10070801
-2,3162842
0,30212402
2,1148682
-4,9346924
0,30212402
-4,8339844
-2,9205322
4,2297363
2,1148682
-2,5177002
0,9063721
-1,1077881
3,7261963
0,10070801
-0,50354004
-4,5318604
-5,3375244
-5,2368164
-6,6467285
-10,070801
-11,984253
-9,667969
-1,3092041
-6,2438965
-2,9205322
1,0070801
-0,30212402
-6,0424805
-10,675049
-3,7261963
-1,7120361
0,70495605
-9,667969
-2,9205322
1,4099121
-0,50354004
-4,9346924
-1,7120361
0,70495605
-0,80566406
0,9063721
1,8127441
12,487793
1,8127441
0,70495605
-3,9276123
1,2084961
10,070801
4,3304443
-2,8198242
-6,2438965
-4,9346924
-0,20141602
-3,7261963
-2,9205322
-4,1290283
-2,7191162
3,6254883
-3,7261963
-4,7332764
-3,0212402
-0,20141602
-0,30212402
-2,9205322
-3,4240723
-1,0070801
-0,10070801
-2,3162842
1,9134521
1,3092041
4,4311523
-2,7191162
-6,7474365
-0,50354004
-0,50354004
1,0070801
2,2155762
1,1077881
-5,9417725
-3,1219482
-14,401245
-4,8339844
-8,258057
-3,6254883
3,2226562
-10,775757
-4,7332764
-0,30212402
5,3375244
6,7474365
7,5531006
6,5460205
8,157349
13,595581
18,73169
14,904785
16,415405
15,206909
13,595581
12,084961
1,8127441
2,7191162
-1,9134521
-4,4311523
-2,7191162
-1,9134521
5,5389404
1,3092041
5,1361084
-1,5106201
-2,2155762
-3,8269043
-2,1148682
-7,3516846
0,40283203
0,70495605
0,70495605
6,6467285
4,0283203
0
-3,0212402
-4,9346924
-0,9063721
-3,5247803
-6,0424805
-8,157349
-6,0424805
-7,7545166
-5,1361084
-7,9559326
-7,8552246
-7,9559326
-10,372925
-5,1361084
-4,1290283
-8,358765
-10,977173
-10,775757
-0,80566406
5,0354004
0,70495605
0,10070801
5,4382324
-10,977173
-3,4240723
3,8269043
-3,1219482
0,70495605
-0,20141602
1,9134521
1,7120361
2,9205322
-2,1148682
1,5106201
3,3233643
-0,20141602
-3,7261963
0,10070801
3,8269043
-1,5106201
-5,5389404
-8,358765
-0,10070801
-4,0283203
-3,2226562
4,2297363
-1,1077881
-8,358765
-6,0424805
-7,0495605
-5,6396484
-6,8481445
0,50354004
-0,30212402
-3,5247803
-5,8410645
-10,473633
-4,0283203
-7,3516846
-8,660889
-3,7261963
-1,2084961
-4,4311523
-7,1502686
-3,8269043
-12,487793
-4,9346924
-0,10070801
-7,0495605
-7,7545166
-5,1361084
-1,7120361
-5,1361084
-5,3375244
-1,3092041
-2,9205322
-0,10070801
-1,8127441
-7,0495605
-4,7332764
-4,7332764
-9,265137
-1,2084961
-4,8339844
-0,9063721
0,10070801
-0,40283203
-2,5177002
-13,696289
-2,7191162
-4,9346924
-8,963013
-11,984253
-10,775757
-3,9276123
-9,265137
-9,365845
-7,5531006
-6,6467285
-4,2297363
-4,8339844
-5,3375244
2,5177002
-3,5247803
-3,0212402
-5,7403564
-2,1148682
-3,1219482
-5,1361084
-7,0495605
-2,9205322
-9,869385
-2,3162842
-8,761597
-2,0141602
-1,0070801
3,4240723
-4,3304443
-1,2084961
-6,7474365
2,0141602
-1,0070801
-7,9559326
1,1077881
-0,10070801
-4,7332764
2,4169922
-0,30212402
-5,4382324
-7,8552246
-7,8552246
-9,466553
-12,991333
-3,4240723
-8,761597
-16,113281
-16,415405
-13,897705
-13,796997
-14,904785
-10,574341
-8,157349
-5,3375244
-5,5389404
-9,567261
-12,387085
-8,560181
-12,185669
-13,796997
-12,890625
-0,9063721
4,9346924
2,7191162
-4,1290283
-3,9276123
-9,567261
-16,71753
-22,155762
-7,5531006
-0,10070801
23,76709
18,630981
16,314697
12,185669
4,0283203
-3,3233643
2,8198242
-8,459473
-0,10070801
-0,10070801
1,3092041
7,0495605
7,5531006
2,7191162
-0,70495605
-9,970093
-7,6538086
-11,077881
-21,853638
-6,4453125
-6,1431885
-1,3092041
-6,1431885
-10,070801
-6,3446045
-3,1219482
8,560181
29,80957
40,786743
44,210815
45,822144
52,267456
57,10144
67,977905
62,539673
66,970825
68,38074
46,224976
27,896118
18,832397
-10,171509
-44,613647
-65,3595
-60,22339
-61,12976
-39,074707
-35,95276
-42,800903
-37,060547
-42,49878
-34,643555
-29,910278
-29,608154
-28,29895
-34,240723
-40,081787
-38,87329
-26,486206
-29,708862
-27,29187
-23,162842
-26,385498
-12,789917
-25,076294
-28,500366
-15,206909
-15,911865
-14,703369
-15,106201
-17,623901
-12,487793
-16,21399
-14,804077
-12,890625
-10,574341
-10,977173
-7,9559326
-4,7332764
-2,1148682
-4,2297363
-4,5318604
-4,6325684
-9,164429
-7,9559326
-7,5531006
-6,8481445
-6,3446045
-2,9205322
-4,4311523
-5,0354004
-8,862305
-2,7191162
-2,6184082
4,3304443
3,7261963
7,1502686
5,8410645
9,063721
9,365845
-5,3375244
-1,8127441
0,10070801
1,4099121
-0,50354004
1,6113281
3,5247803
2,5177002
-0,50354004
3,0212402
2,6184082
1,8127441
-9,164429
-3,1219482
-3,7261963
0,50354004
-6,2438965
-5,9417725
-1,2084961
2,8198242
0,70495605
1,4099121
1,0070801
5,3375244
0,9063721
-0,20141602
8,258057
-3,4240723
-1,1077881
-2,6184082
-3,0212402
-1,9134521
-0,9063721
-4,8339844
-9,164429
-8,358765
-2,8198242
0,40283203
-0,80566406
-0,10070801
3,9276123
8,660889
7,4523926
3,9276123
11,782837
-3,9276123
-4,3304443
-2,1148682
-2,0141602
-1,5106201
-2,4169922
-3,7261963
-4,3304443
-2,3162842
0,9063721
2,8198242
2,3162842
8,157349
1,9134521
-0,20141602
0,50354004
11,984253
3,2226562
1,9134521
6,7474365
0,9063721
0,70495605
4,3304443
-2,5177002
3,5247803
2,5177002
0,30212402
2,9205322
-2,0141602
-7,1502686
-1,7120361
-3,3233643
-9,970093
-3,0212402
-2,5177002
-10,372925
-2,4169922
-0,60424805
-5,9417725
-0,30212402
-0,30212402
-2,7191162
-8,660889
4,3304443
-4,3304443
-4,5318604
-6,8481445
-0,60424805
-8,862305
-3,9276123
-4,1290283
-0,10070801
-0,9063721
-7,6538086
-0,10070801
-5,7403564
-6,7474365
-3,2226562
-0,9063721
0,80566406
-3,3233643
-3,7261963
8,358765
12,890625
4,6325684
0
-1,1077881
-1,8127441
0,60424805
2,6184082
3,9276123
4,5318604
-2,1148682
0,10070801
0,70495605
1,0070801
-4,1290283
-4,2297363
-9,365845
-4,8339844
-13,897705
-0,9063721
-2,0141602
-3,1219482
-2,2155762
-3,8269043
-6,6467285
-11,380005
-13,394165
-11,883545
-11,480713
1,1077881
-15,609741
-8,660889
-7,9559326
-9,164429
-9,567261
-8,459473
-3,0212402
2,5177002
2,7191162
13,897705
19,033813
22,961426
28,500366
23,464966
17,019653
6,9488525
8,560181
6,0424805
1,5106201
2,6184082
4,5318604
2,1148682
3,3233643
8,963013
8,560181
9,970093
9,466553
15,307617
9,164429
6,5460205
2,6184082
9,869385
2,1148682
7,3516846
-4,7332764
-12,387085
-27,29187
-27,090454
-22,659302
-20,040894
-13,595581
-10,876465
-2,8198242
-8,963013
-9,970093
-13,494873
-5,6396484
-7,7545166
-8,862305
-8,560181
-2,0141602
0,70495605
-6,6467285
2,7191162
-2,5177002
0,30212402
-1,9134521
6,6467285
4,1290283
-3,6254883
1,4099121
-1,5106201
2,4169922
2,0141602
13,998413
16,818237
7,8552246
13,595581
16,616821
10,675049
9,164429
6,5460205
4,3304443
8,560181
8,459473
12,991333
2,0141602
-3,9276123
-12,084961
-14,300537
-15,609741
-18,22815
-21,652222
-13,595581
-26,687622
-14,199829
-14,703369
-8,459473
-12,286377
-15,710449
-9,164429
-4,2297363
-5,1361084
0,50354004
-2,3162842
-6,7474365
-3,0212402
-5,6396484
-8,963013
-3,8269043
-11,682129
-14,099121
-14,401245
-13,394165
-13,696289
-12,286377
-7,3516846
-6,1431885
-3,9276123
-3,9276123
-4,4311523
-5,4382324
-10,171509
-10,574341
-7,3516846
-4,2297363
-2,0141602
-5,9417725
-3,5247803
-5,5389404
-2,5177002
-2,8198242
-5,6396484
-6,1431885
-3,5247803
0,80566406
-0,20141602
-0,9063721
-0,9063721
-0,10070801
4,1290283
1,6113281
-1,1077881
-2,6184082
-0,60424805
-3,1219482
-1,8127441
1,5106201
-7,8552246
2,4169922
-3,6254883
-0,50354004
-1,2084961
3,3233643
-9,164429
-0,50354004
1,8127441
5,9417725
3,9276123
-6,8481445
-2,1148682
-7,7545166
-0,70495605
0,60424805
1,1077881
-7,3516846
1,0070801
0,50354004
6,1431885
2,5177002
0,9063721
-2,4169922
2,5177002
0,9063721
-0,50354004
-10,372925
-4,4311523
-7,0495605
-0,30212402
0,80566406
0,70495605
-0,50354004
1,8127441
-1,4099121
-10,775757
-4,5318604
-1,8127441
-11,581421
2,6184082
-4,3304443
-4,3304443
-1,8127441
-5,5389404
-6,2438965
-1,5106201
-9,869385
-3,0212402
-2,0141602
-9,365845
-5,4382324
-4,5318604
-8,358765
1,4099121
-0,10070801
-5,4382324
-4,3304443
-3,6254883
-2,3162842
-0,10070801
0,30212402
-3,2226562
-2,9205322
-5,9417725
-10,977173
-18,328857
-11,581421
-1,0070801
-7,2509766
-3,4240723
0
-1,1077881
-5,4382324
4,0283203
2,2155762
5,2368164
2,8198242
2,6184082
5,3375244
3,5247803
-2,2155762
-0,80566406
-4,6325684
-7,9559326
-5,4382324
-5,2368164
-9,970093
-4,7332764
1,9134521
1,6113281
-2,5177002
-1,2084961
-3,5247803
-5,5389404
-4,9346924
-3,2226562
2,7191162
-0,60424805
6,7474365
12,286377
17,422485
11,984253
5,0354004
9,164429
5,3375244
4,5318604
-3,6254883
-8,560181
-6,9488525
-6,4453125
-1,3092041
3,2226562
3,8269043
2,3162842
-2,3162842
-4,8339844
-7,1502686
-1,7120361
-3,7261963
-6,3446045
-20,544434
-24,874878
-32,528687
-17,120361
-0,9063721
-2,2155762
1,2084961
-1,1077881
0,70495605
-0,30212402
-1,1077881
7,2509766
9,365845
5,4382324
11,380005
-0,50354004
0,20141602
4,1290283
0,10070801
-7,3516846
-1,5106201
2,3162842
-2,5177002
6,4453125
-3,8269043
-2,6184082
-7,3516846
-12,991333
-15,408325
-11,883545
-8,258057
-11,883545
-10,272217
-7,5531006
-6,7474365
2,3162842
-3,9276123
-4,7332764
-2,7191162
2,7191162
14,199829
18,22815
23,26355
24,975586
21,24939
16,71753
13,696289
12,387085
9,164429
6,9488525
7,1502686
0,50354004
-6,9488525
-15,106201
-9,063721
-9,768677
-11,178589
-9,365845
-4,0283203
-3,2226562
-10,272217
-10,473633
-3,2226562
-6,0424805
-0,70495605
-3,8269043
-9,970093
1,6113281
-1,5106201
-9,869385
-5,7403564
-3,7261963
-0,10070801
-3,1219482
-1,4099121
-2,2155762
-8,963013
-8,862305
-5,0354004
-11,480713
0,80566406
-2,4169922
7,5531006
-1,9134521
-7,4523926
-6,6467285
-2,5177002
-9,164429
-9,567261
-6,3446045
-5,9417725
-16,415405
-5,5389404
-10,876465
-11,480713
-4,1290283
-4,2297363
-6,9488525
-0,30212402
-4,7332764
-7,5531006
-1,7120361
-2,0141602
-8,660889
-2,4169922
-1,4099121
-2,7191162
-4,1290283
-7,2509766
-2,8198242
-7,3516846
-5,9417725
-5,8410645
-4,9346924
-9,667969
-6,8481445
-7,0495605
-4,7332764
-3,2226562
-5,7403564
-4,1290283
-11,178589
-5,6396484
-2,8198242
0
-3,8269043
2,3162842
-0,9063721
0,9063721
-4,7332764
-4,0283203
-0,9063721
0,10070801
0,70495605
4,3304443
3,4240723
-1,1077881
-8,761597
-4,7332764
-3,6254883
0,20141602
3,5247803
2,4169922
-0,50354004
4,3304443
3,3233643
1,7120361
-3,6254883
2,1148682
-4,1290283
-6,2438965
-2,3162842
3,5247803
-2,2155762
-5,7403564
-4,2297363
-2,4169922
2,0141602
-0,50354004
-2,7191162
-0,70495605
-2,5177002
-0,10070801
2,9205322
-5,3375244
-8,963013
-6,0424805
-10,171509
8,862305
-7,8552246
-5,6396484
-7,5531006
-6,6467285
-3,4240723
-8,560181
0,40283203
-4,3304443
0,9063721
-2,4169922
-3,2226562
-3,8269043
-5,3375244
-0,10070801
1,5106201
-4,6325684
-7,3516846
-0,50354004
-7,6538086
-5,9417725
-6,4453125
-0,70495605
0,70495605
-0,60424805
3,4240723
5,8410645
-2,7191162
6,7474365
-3,9276123
-0,50354004
-9,466553
-8,560181
-9,164429
-9,567261
-11,279297
-5,6396484
-7,4523926
-8,963013
-2,5177002
-9,063721
-7,4523926
-10,775757
-3,8269043
-0,9063721
-5,7403564
0,10070801
-9,869385
-6,3446045
-7,9559326
-4,5318604
-3,6254883
-8,157349
-2,3162842
-2,1148682
-2,8198242
3,2226562
0,50354004
6,2438965
9,768677
6,0424805
0,10070801
3,9276123
-4,1290283
-12,689209
-15,206909
-13,394165
-10,070801
-12,588501
-6,4453125
-1,6113281
-3,5247803
-4,5318604
-0,40283203
-2,1148682
1,7120361
-4,7332764
-5,3375244
-1,3092041
4,2297363
0,70495605
8,157349
8,963013
3,7261963
4,4311523
1,7120361
-2,7191162
-5,8410645
0,40283203
2,0141602
0,10070801
0,30212402
-4,0283203
2,0141602
0
2,4169922
-2,2155762
3,7261963
7,7545166
7,7545166
6,6467285
6,9488525
8,459473
5,8410645
7,0495605
5,2368164
5,0354004
9,063721
15,106201
11,178589
3,4240723
2,8198242
-3,7261963
-11,782837
-2,9205322
-3,7261963
-11,782837
-7,0495605
-4,6325684
-13,192749
-8,157349
-9,970093
-7,0495605
-8,560181
-9,365845
-11,883545
-15,509033
-8,660889
-1,9134521
0,40283203
-1,9134521
-6,9488525
-0,50354004
-9,970093
-12,387085
-7,9559326
-8,862305
-16,415405
-8,560181
-8,963013
-2,7191162
-6,8481445
-1,8127441
-0,9063721
4,3304443
1,8127441
6,8481445
6,9488525
-5,1361084
1,3092041
-12,487793
-5,6396484
-5,9417725
-3,9276123
-7,2509766
-8,459473
-9,970093
-14,199829
-20,040894
-18,832397
-15,609741
-17,422485
-11,883545
-7,1502686
-1,1077881
3,6254883
4,3304443
-1,5106201
6,6467285
1,4099121
-2,3162842
-4,1290283
-2,7191162
-1,5106201
-4,7332764
-1,5106201
-3,7261963
-2,7191162
1,0070801
-0,80566406
-1,0070801
-0,9063721
-0,9063721
-3,5247803
0,60424805
-3,9276123
-8,560181
-2,2155762
-2,4169922
-3,5247803
0,50354004
-0,10070801
-5,5389404
-6,9488525
11,682129
1,3092041
-8,761597
2,9205322
-4,5318604
-2,3162842
-7,9559326
-6,2438965
-6,9488525
-3,7261963
-3,4240723
-2,8198242
-6,7474365
-9,365845
-3,4240723
-11,279297
-9,667969
-3,4240723
-2,4169922
0,10070801
-2,7191162
-5,8410645
-5,8410645
-6,2438965
-4,7332764
-3,6254883
1,4099121
-3,7261963
1,4099121
-5,6396484
-3,2226562
-0,9063721
-4,5318604
-11,077881
-7,1502686
2,9205322
5,3375244
7,5531006
3,2226562
3,3233643
-0,70495605
-12,185669
-9,466553
-1,3092041
2,2155762
3,2226562
11,380005
5,9417725
-0,50354004
1,0070801
-0,50354004
2,8198242
-2,2155762
0,30212402
0,10070801
1,4099121
-13,293457
-4,9346924
-0,70495605
-2,8198242
-0,60424805
11,782837
2,4169922
-0,30212402
-4,0283203
-5,2368164
-2,8198242
3,2226562
0,70495605
0,30212402
1,4099121
-3,7261963
4,8339844
0,50354004
-0,70495605
4,3304443
3,7261963
4,8339844
-3,2226562
-4,7332764
-9,970093
-3,8269043
-4,1290283
-8,660889
-4,7332764
-8,358765
-11,480713
-9,164429
-11,077881
-4,5318604
-5,1361084
-4,2297363
-7,1502686
-15,206909
-8,862305
-7,0495605
-0,60424805
4,8339844
-0,40283203
0,80566406
5,3375244
2,2155762
0,70495605
-2,3162842
-2,0141602
-8,560181
-0,10070801
2,9205322
-0,50354004
3,9276123
4,1290283
-0,9063721
0,20141602
2,6184082
6,4453125
15,408325
0,40283203
-2,2155762
-1,5106201
0,10070801
1,3092041
-1,5106201
4,4311523
3,0212402
-0,10070801
-4,1290283
-4,1290283
-7,5531006
-10,070801
1,0070801
-6,5460205
-6,8481445
-7,7545166
-8,056641
-5,6396484
-2,9205322
-1,5106201
1,1077881
-1,3092041
-2,0141602
-8,862305
-10,272217
-9,970093
-6,4453125
-4,8339844
-12,487793
-2,2155762
-5,0354004
-1,4099121
-6,0424805
-7,5531006
-12,387085
-12,387085
-4,7332764
-2,5177002
-2,3162842
3,6254883
4,4311523
3,9276123
5,7403564
-1,6113281
-0,50354004
6,9488525
-6,8481445
-4,3304443
-7,3516846
-8,157349
-5,8410645
-10,675049
-0,70495605
-7,1502686
-5,4382324
-6,7474365
-6,1431885
4,3304443
2,3162842
4,3304443
5,5389404
10,977173
7,4523926
4,1290283
10,775757
4,5318604
0,30212402
2,2155762
7,7545166
6,3446045
5,2368164
3,9276123
2,4169922
-0,9063721
-4,1290283
-5,7403564
-14,501953
-23,26355
-12,890625
-22,860718
-17,422485
-13,796997
-18,630981
-13,696289
-15,509033
-14,804077
-16,616821
-15,609741
-9,365845
-8,761597
-8,761597
-3,7261963
-1,1077881
-8,258057
-5,5389404
-2,7191162
-4,8339844
-13,796997
-6,1431885
-8,258057
-13,696289
-6,0424805
-1,9134521
0,10070801
-5,1361084
0,30212402
0,50354004
-2,5177002
1,0070801
-1,5106201
1,7120361
-5,1361084
-4,7332764
-5,4382324
2,3162842
-6,4453125
-7,6538086
-2,6184082
0,9063721
-2,4169922
2,6184082
11,178589
1,4099121
3,0212402
3,7261963
0
1,3092041
-2,1148682
-4,3304443
-6,3446045
-3,4240723
-8,358765
-5,8410645
-6,7474365
-8,358765
-7,9559326
-9,063721
-1,7120361
-4,6325684
-6,1431885
1,6113281
3,2226562
-3,5247803
-1,0070801
-4,1290283
4,5318604
2,1148682
-1,2084961
-6,0424805
-5,9417725
-5,9417725
-3,5247803
-9,063721
-4,9346924
-3,1219482
-0,60424805
-7,5531006
-5,6396484
-5,1361084
-8,157349
-2,4169922
-1,4099121
-0,30212402
5,4382324
1,6113281
18,933105
3,5247803
-1,1077881
-0,70495605
-3,5247803
-0,50354004
-1,5106201
2,5177002
-1,1077881
-9,164429
-0,60424805
-1,1077881
-6,2438965
-4,7332764
-2,0141602
-7,2509766
-0,9063721
-1,8127441
-0,9063721
1,6113281
0,30212402
2,9205322
10,372925
5,6396484
-0,20141602
1,4099121
-0,9063721
6,4453125
-2,9205322
-5,3375244
-5,0354004
-6,9488525
0,50354004
2,0141602
-2,1148682
3,3233643
0,10070801
0,10070801
-7,5531006
-5,4382324
0,80566406
-0,60424805
4,5318604
1,8127441
-2,0141602
4,9346924
4,1290283
3,8269043
3,9276123
10,775757
3,6254883
-6,4453125
-5,2368164
-8,358765
-6,8481445
-11,178589
-8,963013
-8,258057
-6,9488525
0,40283203
-4,3304443
-10,675049
-8,660889
-6,6467285
-5,5389404
-4,7332764
-1,4099121
-6,2438965
-10,473633
-4,0283203
-3,1219482
-1,5106201
0,9063721
-0,9063721
1,3092041
2,4169922
-5,1361084
-4,3304443
-6,0424805
2,1148682
-3,6254883
2,8198242
0,70495605
-4,5318604
-3,0212402
-7,1502686
-4,5318604
-8,459473
-7,6538086
-10,574341
-10,876465
-9,466553
-13,394165
-7,6538086
-0,9063721
-4,4311523
-4,8339844
-4,8339844
2,3162842
3,3233643
4,5318604
6,0424805
7,6538086
7,1502686
-3,1219482
-7,5531006
-2,5177002
0
-1,1077881
-2,6184082
-0,50354004
-1,9134521
-1,7120361
1,9134521
-10,372925
-3,7261963
-5,3375244
-8,459473
-3,1219482
-7,1502686
-1,1077881
-2,0141602
-4,8339844
-1,9134521
-3,7261963
-12,588501
1,4099121
1,6113281
5,1361084
-1,1077881
-1,1077881
-2,7191162
3,1219482
6,1431885
-3,4240723
-0,80566406
0,10070801
0,10070801
1,5106201
0,9063721
-3,8269043
-2,5177002
-10,876465
-10,675049
-12,991333
-15,408325
-6,0424805
-16,71753
-17,120361
-8,459473
-0,10070801
-5,2368164
-1,1077881
2,9205322
2,1148682
2,4169922
11,984253
9,164429
10,977173
14,703369
8,560181
-1,7120361
-3,8269043
7,9559326
2,3162842
5,4382324
2,0141602
-5,3375244
-2,5177002
-2,7191162
-7,0495605
-6,6467285
-2,8198242
-9,970093
3,4240723
-1,2084961
-5,8410645
1,0070801
10,070801
-2,6184082
0,9063721
0,30212402
-1,6113281
-1,4099121
3,0212402
-7,7545166
2,6184082
3,3233643
-1,8127441
2,0141602
1,7120361
1,7120361
-0,60424805
-10,473633
-14,501953
-8,963013
-11,984253
-11,077881
6,4453125
50,857544
101,21155
126,28784
126,79138
125,98572
130,21545
122,46094
113,497925
108,966064
87,51526
70,495605
49,649048
33,737183
23,162842
-5,3375244
-24,874878
-24,069214
-19,23523
-19,23523
-17,72461
-18,530273
-13,696289
-15,307617
-15,609741
-27,29187
-38,571167
-48,843384
-50,05188
-51,461792
-44,210815
-46,224976
-37,564087
-35,34851
-32,730103
-37,46338
-26,586914
-27,996826
-35,751343
-36,657715
-39,88037
-45,721436
-58,007812
-70,89844
-79,156494
-75,027466
-63,043213
-58,309937
-57,907104
-40,182495
-20,645142
7,2509766
17,019653
15,408325
8,358765
13,092041
-2,1148682
6,5460205
5,1361084
3,8269043
1,5106201
1,8127441
-3,2226562
10,775757
9,667969
-7,9559326
38,168335
108,36182
162,54272
171,1029
138,87634
108,462524
107,65686
123,2666
137,56714
146,22803
163,04626
133,63953
103,02429
84,89685
53,67737
51,763916
44,41223
26,78833
4,7332764
-9,365845
-15,811157
-26,083374
-32,730103
-40,081787
-35,751343
-29,003906
-42,599487
-62,841797
-75,32959
-68,28003
-80,4657
-86,00464
-107,75757
-124,17297
-127,49634
-145,12024
-155,19104
-173,01636
-177,74963
-120,44678
37,96692
245,62683
317,93518
299,4049
224,37744
176,33972
134,74731
253,28064
352,67944
362,64954
331,02722
305,24597
274,83215
236,66382
225,48523
251,5686
254,79126
247,33887
213,40027
142,50183
68,38074
48,03772
-23,464966
-67,977905
-97,68677
-68,58215
-42,49878
-35,44922
-79,559326
-170,19653
-197,79053
-218,93921
-245,82825
-210,78186
-198,49548
-238,77869
-281,8817
-220,24841
-145,72449
-73,31543
45,318604
260,73303
866,391
1338,4094
1419,278
1339,2151
1258,7494
1130,5481
998,01636
860,95276
677,7649
524,0845
401,2207
318,338
144,11316
-84,89685
-234,54895
-323,2727
-352,67944
-381,68335
-440,79895
-659,53674
-966,7969
-1103,0548
-1075,2594
-980,6946
-870,2179
-807,074
-747,1527
-711,7035
-692,6697
-666,8884
-608,5785
-567,1875
-549,765
-532,74536
-498,60535
-458,32214
-409,07593
-360,43396
-347,1405
-331,63147
-329,81873
-328,4088
-309,77783
-304,13818
-281,17676
-257,61108
-240,99426
-215,91797
-198,89832
-175,93689
-154,78821
-159,82361
-209,06982
-264,0564
-266,07056
-244,82117
-215,71655
-188,22327
-130,01404
23,26355
124,97864
132,53174
98,794556
81,87561
50,454712
33,132935
17,926025
-9,970093
-26,889038
25,881958
181,37512
418,9453
680,0812
819,7632
812,4115
822,4823
887,5397
776,9623
633,7555
661,3495
772,73254
829,7333
855,3131
817,84973
719,1559
608,4778
501,22375
399,20654
282,28455
69,08569
-148,84644
-290,4419
-278,0548
-214,60876
-193,25867
-241,09497
-295,6787
-362,0453
-393,96973
-411,79504
-488,83667
-505,25208
-489,84375
-549,06006
-624,49036
-656,3141
-606,1615
-557,1167
-469,80286
-266,7755
-186,41052
-188,52539
-202,92664
-144,11316
-47,634888
78,048706
220,34912
273,22083
255,79834
346,53625
492,36145
549,06006
487,72888
377,55432
166,77246
-48,03772
-136,86218
-208,46558
-221,75903
-177,64893
-153,3783
-135,15015
-144,11316
-216,2201
-280,87463
-323,57483
-313,80615
-326,19324
-298,80066
-189,73389
-92,34924
-180,46875
-292,05322
-104,333496
202,92664
425,79346
508,87756
438,28125
328,81165
229,91638
114,4043
-18,026733
-131,22253
-153,57971
-190,33813
-113,69934
-10,675049
72,61047
38,067627
3,5247803
-42,700195
-102,21863
-200,61035
-194,06433
50,253296
211,78894
240,69214
300,00916
367,1814
369,09485
317,73376
277,65198
229,91638
155,9967
16,21399
-68,984985
-122,76306
-141,29333
-200,91248
-308,67004
-338,1775
-338,2782
-286,21216
-207,25708
-173,6206
-175,73547
-192,75513
-211,78894
-214,50806
-235,85815
-265,56702
-267,17834
-255,89905
-232,33337
-185,70557
-139,682
-105,23987
-79,86145
-42,39807
-19,839478
91,14075
154,98962
127,79846
61,73401
-57,000732
-160,32715
-256,5033
-369,9005
-459,53064
-510,99243
-585,9192
-661,853
-636,87744
-544,7296
-439,79187
-322,66846
-229,01001
-66,16516
173,21777
406,65894
537,0758
611,2976
684,1095
685,5194
652,3865
633,25195
634,964
621,167
541,30554
409,68018
274,63074
113,1958
-28,399658
-93,96057
-69,28711
-96,8811
-155,29175
-208,26416
-234,34753
-222,6654
-189,63318
-144,91882
-114,001465
-88,82446
-15,005493
34,94568
68,07861
58,007812
81,06995
181,073
244,31763
282,7881
302,12402
295,578
242,00134
170,39795
94,766235
-6,8481445
-71,80481
-93,15491
-61,6333
-37,261963
-14,501953
-0,30212402
-2,8198242
-8,056641
-13,394165
-5,1361084
1,2084961
18,429565
21,24939
15,206909
-5,7403564
-26,083374
-50,253296
-76,638794
-83,28552
-80,76782
-93,15491
-96,47827
-91,44287
-89,83154
-72,20764
-67,37366
-57,60498
-55,18799
-52,06604
-47,131348
-42,700195
-48,239136
-43,707275
-35,046387
-36,4563
-35,751343
-32,83081
-30,31311
-30,81665
-27,79541
-20,24231
-19,134521
-18,73169
-11,883545
-14,804077
-10,574341
-14,804077
-9,567261
-14,300537
-16,012573
-19,436646
-22,457886
-18,127441
-12,286377
-8,258057
-10,977173
-11,782837
-2,4169922
-5,7403564
-3,7261963
-45,217896
-83,78906
-93,35632
-100,40588
-98,59314
-81,7749
-56,69861
-47,634888
-24,874878
-17,120361
-12,789917
-4,1290283
2,3162842
13,897705
30,010986
39,276123
68,28003
90,234375
90,93933
79,76074
87,213135
66,56799
52,368164
34,542847
29,406738
30,917358
22,155762
23,26355
15,811157
44,311523
87,716675
118,13049
116,519165
106,04553
105,944824
65,66162
52,670288
54,382324
35,046387
0,50354004
-12,387085
0,40283203
110,476685
165,46326
167,77954
121,45386
77,74658
79,2572
80,56641
101,71509
182,58362
167,07458
127,99988
87,91809
16,21399
-138,3728
-207,15637
-192,25159
-171,40503
-148,14148
-126,89209
-120,14465
-114,90784
-110,37598
-111,68518
-126,18713
-110,27527
-91,14075
-78,45154
-69,1864
-65,460205
-65,86304
-56,497192
-51,663208
-38,671875
-36,758423
-35,34851
-34,039307
-28,29895
-26,28479
-21,551514
-16,415405
-14,703369
-3,6254883
3,6254883
8,963013
7,3516846
13,092041
11,380005
16,918945
16,71753
19,436646
10,272217
15,911865
6,9488525
20,040894
18,73169
17,926025
16,415405
12,890625
10,171509
8,157349
4,1290283
3,7261963
6,7474365
10,775757
11,077881
20,141602
20,24231
11,883545
23,364258
22,659302
24,27063
14,904785
5,4382324
5,7403564
10,070801
8,056641
14,804077
16,113281
14,501953
15,609741
24,371338
24,069214
25,27771
20,544434
9,164429
8,963013
7,8552246
7,6538086
13,796997
6,8481445
2,1148682
5,3375244
4,2297363
-0,30212402
-1,0070801
-4,1290283
-0,10070801
17,523193
13,897705
12,387085
12,689209
16,616821
8,560181
13,192749
6,9488525
6,2438965
0,10070801
2,1148682
8,157349
5,6396484
1,0070801
4,0283203
5,3375244
21,954346
14,804077
12,588501
12,689209
4,9346924
13,595581
9,063721
12,588501
18,832397
14,501953
15,408325
12,487793
16,113281
5,2368164
11,480713
16,616821
23,464966
28,399658
27,090454
29,30603
28,80249
35,046387
28,399658
20,947266
30,413818
31,32019
24,472046
28,500366
28,80249
40,98816
23,062134
17,523193
16,314697
1,7120361
-35,650635
-65,3595
-61,6333
-54,68445
-36,154175
-25,78125
-24,673462
-31,32019
-27,29187
-21,954346
-22,055054
-21,652222
-19,134521
-15,307617
-11,077881
-2,9205322
1,3092041
-2,4169922
-6,3446045
-12,185669
-4,7332764
-20,343018
-13,998413
-13,192749
-10,876465
-19,537354
-17,623901
-13,595581
-19,033813
-25,982666
-41,39099
-35,247803
-31,521606
-33,032227
-15,206909
-2,1148682
19,033813
9,567261
9,768677
2,9205322
-3,5247803
-7,8552246
-5,5389404
-4,2297363
6,5460205
18,530273
27,996826
29,608154
19,335938
22,558594
17,422485
11,984253
3,6254883
8,862305
3,2226562
9,768677
7,2509766
4,9346924
1,8127441
-1,5106201
0,70495605
-6,1431885
-8,963013
-12,890625
-18,630981
-15,408325
-9,265137
-6,9488525
-4,9346924
-8,157349
7,7545166
-7,7545166
-10,372925
-16,21399
-1,9134521
3,7261963
13,897705
14,703369
10,574341
7,8552246
8,258057
9,063721
5,1361084
6,8481445
2,4169922
-0,30212402
1,8127441
-0,30212402
4,0283203
0,9063721
3,2226562
2,6184082
5,9417725
-5,1361084
0
5,6396484
0,40283203
-5,5389404
-0,50354004
2,1148682
-1,9134521
-9,164429
-4,2297363
-0,20141602
-1,7120361
-1,1077881
-5,8410645
-9,365845
-5,9417725
-1,9134521
0
-0,20141602
4,2297363
-1,9134521
-1,4099121
-2,7191162
-4,1290283
-1,9134521
-0,10070801
-0,40283203
-1,5106201
-2,9205322
-11,178589
-5,6396484
-1,5106201
-0,9063721
-3,4240723
-2,2155762
-5,7403564
-3,9276123
7,3516846
10,574341
10,775757
7,3516846
14,501953
10,977173
17,825317
18,429565
12,991333
12,387085
3,0212402
-1,6113281
-3,2226562
-5,5389404
-1,3092041
-5,4382324
-1,6113281
-0,9063721
0,10070801
-0,10070801
-5,1361084
-5,9417725
0,60424805
1,8127441
9,466553
-1,1077881
-9,869385
-15,509033
-8,660889
-8,660889
-2,5177002
3,2226562
3,9276123
15,509033
13,394165
11,782837
8,056641
7,3516846
8,358765
-2,3162842
-3,5247803
-1,0070801
-4,5318604
-4,7332764
-10,574341
-4,7332764
-14,703369
-15,710449
-17,019653
-10,574341
-7,7545166
-7,5531006
-9,164429
-3,6254883
2,0141602
3,2226562
3,4240723
-3,4240723
4,6325684
-0,9063721
1,2084961
-11,279297
0,10070801
-4,5318604
5,9417725
3,5247803
11,279297
4,1290283
5,3375244
4,3304443
2,8198242
2,3162842
5,0354004
5,1361084
3,3233643
7,7545166
4,1290283
13,897705
8,963013
13,192749
-0,70495605
4,5318604
4,9346924
0,50354004
3,4240723
-4,1290283
-1,8127441
0,80566406
7,9559326
7,0495605
9,164429
0,40283203
-8,862305
-7,3516846
2,0141602
-2,9205322
-4,7332764
-13,092041
-6,1431885
-8,358765
-12,890625
-10,977173
-10,977173
-3,5247803
-2,1148682
6,5460205
-2,7191162
-1,3092041
-15,408325
-16,818237
-21,652222
-19,839478
-10,171509
-10,372925
-8,258057
2,6184082
-0,30212402
-1,4099121
-4,6325684
-7,3516846
-10,574341
-3,3233643
-14,401245
-7,7545166
-9,768677
-8,862305
-5,2368164
-2,0141602
-8,963013
-5,8410645
-11,984253
-11,682129
-1,7120361
-5,4382324
-11,178589
1,2084961
-0,70495605
0,80566406
6,1431885
23,162842
17,825317
15,609741
10,473633
5,2368164
6,6467285
6,2438965
3,8269043
-2,1148682
5,3375244
-2,3162842
-9,365845
-6,0424805
-3,9276123
-9,567261
-6,5460205
-7,1502686
-5,0354004
-11,178589
-14,602661
-10,473633
-15,811157
-8,560181
-9,265137
-0,10070801
-13,092041
-13,595581
-16,012573
-21,853638
-27,392578
-27,090454
-15,609741
-13,192749
-11,581421
-7,8552246
-15,710449
-24,874878
-27,896118
-26,486206
-12,689209
5,2368164
2,7191162
10,574341
15,509033
26,385498
25,479126
14,804077
22,155762
6,1431885
-0,30212402
5,5389404
6,7474365
23,867798
29,910278
34,542847
29,608154
33,9386
38,36975
21,954346
39,074707
44,210815
38,671875
23,565674
16,314697
-11,782837
-51,461792
-63,848877
-57,302856
-43,103027
-36,254883
-30,010986
-32,528687
-31,219482
-26,28479
-21,954346
-17,825317
-12,991333
-12,185669
-8,862305
-12,084961
-18,630981
-14,804077
-16,71753
-14,401245
-17,825317
-8,358765
-11,782837
-8,862305
-6,3446045
-9,265137
-7,7545166
-7,5531006
-7,9559326
-2,1148682
-8,660889
-5,1361084
-6,3446045
3,4240723
0,50354004
10,675049
5,9417725
7,1502686
11,782837
9,365845
11,380005
12,387085
6,2438965
14,199829
12,185669
3,2226562
-0,60424805
10,977173
0,10070801
8,963013
7,5531006
8,056641
1,9134521
-3,8269043
-14,804077
-19,537354
-29,003906
-40,98816
-31,420898
-31,32019
-28,097534
-29,910278
-25,076294
-21,652222
-15,408325
-9,063721
-12,588501
-2,5177002
-4,3304443
-2,4169922
1,1077881
8,157349
3,2226562
1,8127441
-2,2155762
-8,761597
-5,9417725
-0,70495605
-7,5531006
-2,8198242
-0,70495605
-7,1502686
1,8127441
5,7403564
7,4523926
-0,9063721
6,4453125
0,80566406
0,30212402
0,10070801
-4,1290283
-3,4240723
-6,6467285
-4,1290283
2,7191162
-4,1290283
-8,761597
-5,9417725
-6,0424805
-2,8198242
3,5247803
-3,0212402
4,4311523
7,2509766
7,5531006
4,2297363
2,0141602
4,3304443
-0,70495605
3,3233643
-6,1431885
-3,9276123
2,3162842
-1,1077881
0,9063721
2,9205322
0,60424805
8,459473
1,6113281
2,8198242
-0,70495605
1,8127441
-1,5106201
2,4169922
-3,9276123
5,2368164
0,70495605
4,5318604
-7,5531006
-5,7403564
-12,789917
-6,2438965
-7,1502686
-3,7261963
-8,963013
0,20141602
-3,3233643
-1,8127441
-3,0212402
-0,10070801
2,6184082
6,9488525
4,6325684
-3,6254883
-2,3162842
-2,3162842
-1,0070801
-7,6538086
-6,2438965
-0,9063721
-5,3375244
-1,2084961
-4,1290283
6,8481445
-2,0141602
-8,963013
-5,8410645
-3,5247803
-0,60424805
-8,358765
-2,6184082
2,3162842
-0,70495605
0,40283203
-4,7332764
-4,1290283
3,0212402
-4,0283203
-2,7191162
-4,5318604
-5,5389404
-13,796997
-12,185669
-9,970093
-3,9276123
-11,077881
-8,862305
-11,279297
-13,796997
-10,977173
-10,876465
-10,574341
-7,9559326
-11,077881
1,3092041
-6,7474365
-1,7120361
-0,50354004
-1,5106201
-6,7474365
0,40283203
-2,2155762
2,6184082
-2,4169922
1,7120361
-5,1361084
-5,9417725
-10,473633
8,560181
-0,80566406
3,5247803
-3,0212402
-3,7261963
-6,8481445
20,040894
25,378418
36,557007
38,168335
46,02356
37,765503
36,557007
40,88745
43,203735
43,606567
31,723022
8,862305
-7,4523926
-49,0448
-69,992065
-65,3595
-59,1156
-37,564087
-27,996826
-33,737183
-32,528687
-27,090454
-27,29187
-22,558594
-17,019653
-19,436646
-14,401245
-11,178589
-4,3304443
-2,5177002
-3,7261963
1,5106201
0,9063721
-1,1077881
-0,50354004
-0,9063721
5,1361084
0,9063721
7,0495605
10,775757
7,7545166
9,365845
4,1290283
-4,3304443
-0,30212402
-4,1290283
5,2368164
2,1148682
1,2084961
-4,5318604
0,60424805
-0,10070801
-3,9276123
-6,3446045
-5,5389404
-5,7403564
-3,9276123
4,3304443
-2,3162842
-4,7332764
2,5177002
-0,50354004
-3,5247803
-2,5177002
2,6184082
-6,3446045
1,1077881
-2,4169922
-3,3233643
-2,8198242
-2,9205322
-0,40283203
-3,0212402
-10,574341
-6,7474365
-15,005493
-12,991333
-7,5531006
2,6184082
-1,7120361
8,560181
6,1431885
10,574341
2,3162842
3,7261963
-2,1148682
-2,1148682
-3,2226562
-6,7474365
-5,9417725
-10,372925
-9,365845
-8,761597
-4,3304443
-0,10070801
0,80566406
8,157349
0,9063721
4,1290283
10,876465
9,466553
4,3304443
6,5460205
7,8552246
2,3162842
4,4311523
7,5531006
8,258057
7,5531006
16,415405
4,4311523
9,768677
10,876465
-2,2155762
-5,4382324
-12,286377
-16,21399
-18,933105
-13,595581
-15,408325
-13,293457
-11,984253
-7,5531006
-4,5318604
-1,5106201
-5,6396484
-10,171509
-7,4523926
-10,372925
-4,3304443
-3,1219482
-6,2438965
-0,70495605
-7,3516846
-7,5531006
-4,1290283
-8,560181
-9,567261
-5,5389404
-7,2509766
-9,365845
-1,9134521
-4,4311523
-4,3304443
-5,0354004
-7,0495605
-2,8198242
-0,9063721
-6,3446045
-3,2226562
-3,7261963
-3,5247803
-4,5318604
1,7120361
-5,3375244
-4,4311523
-0,30212402
2,9205322
3,7261963
11,883545
6,5460205
-5,9417725
-0,30212402
-8,660889
-3,8269043
-5,2368164
-9,365845
-8,761597
-7,3516846
-6,3446045
-6,1431885
-12,991333
-2,0141602
-4,3304443
-1,9134521
-11,480713
-6,0424805
-3,7261963
-1,4099121
-0,60424805
3,3233643
-6,2438965
6,1431885
-3,1219482
0,50354004
-3,1219482
-5,3375244
-4,7332764
-0,10070801
-2,2155762
-5,9417725
-4,8339844
-7,4523926
-3,6254883
-0,9063721
-3,1219482
-0,70495605
-3,1219482
-2,7191162
-4,0283203
-7,2509766
3,4240723
-4,1290283
-2,9205322
0,30212402
-0,30212402
1,6113281
-0,30212402
5,7403564
-4,4311523
-5,0354004
-10,171509
-2,1148682
-4,2297363
-4,1290283
-3,1219482
-10,775757
4,3304443
4,4311523
-2,1148682
-3,4240723
-4,5318604
-5,6396484
0,80566406
-4,2297363
-4,9346924
6,5460205
-5,7403564
-4,1290283
-0,10070801
2,1148682
1,3092041
-3,3233643
-1,6113281
5,2368164
3,4240723
6,0424805
0,50354004
-1,0070801
-3,9276123
-3,9276123
-1,1077881
-4,3304443
-6,3446045
-8,963013
-7,1502686
-7,0495605
-7,8552246
-15,408325
-10,675049
-4,8339844
-8,560181
1,1077881
-1,6113281
-0,50354004
0,80566406
0,60424805
-6,6467285
-2,2155762
-4,5318604
-10,171509
-11,581421
-10,675049
-13,595581
-6,8481445
-7,5531006
1,4099121
-1,3092041
2,2155762
1,9134521
4,6325684
-1,1077881
-1,9134521
-1,0070801
-6,8481445
-5,1361084
-3,7261963
-4,9346924
5,5389404
11,984253
10,574341
7,5531006
9,667969
8,660889
15,408325
1,3092041
-3,7261963
-0,20141602
-3,3233643
-1,9134521
2,7191162
5,3375244
0,80566406
-3,1219482
-0,30212402
-4,9346924
-4,4311523
0,9063721
-7,0495605
0,10070801
-5,7403564
-6,4453125
-11,178589
-2,7191162
-4,6325684
-8,963013
-9,365845
-0,10070801
-6,8481445
-6,9488525
-1,1077881
-3,5247803
2,3162842
-3,8269043
0,10070801
2,8198242
8,258057
8,157349
5,6396484
13,998413
12,689209
7,5531006
3,6254883
1,8127441
-1,6113281
1,6113281
0,80566406
3,2226562
2,9205322
2,3162842
3,0212402
-3,0212402
-2,5177002
-1,8127441
0,70495605
-4,1290283
3,4240723
-2,9205322
2,8198242
3,6254883
3,7261963
1,3092041
0,80566406
-1,5106201
0,10070801
-5,3375244
-7,4523926
4,9346924
-0,20141602
2,3162842
3,3233643
1,8127441
-2,6184082
-6,9488525
-9,466553
-1,7120361
-6,0424805
-10,171509
-7,5531006
-3,1219482
-2,9205322
-1,0070801
-0,30212402
-3,5247803
1,2084961
-5,0354004
-3,7261963
-9,768677
-6,8481445
-4,7332764
-1,6113281
-5,1361084
9,869385
2,9205322
4,4311523
-1,7120361
-0,40283203
-1,2084961
0,20141602
-0,20141602
4,3304443
-7,1502686
-3,1219482
3,6254883
1,7120361
-3,9276123
-3,8269043
-4,7332764
0,60424805
2,0141602
1,3092041
4,5318604
-2,1148682
-4,2297363
-0,10070801
-0,10070801
-5,3375244
-0,30212402
0,10070801
-2,3162842
2,5177002
-1,5106201
-2,8198242
3,6254883
4,3304443
-2,3162842
-4,5318604
-6,0424805
-1,7120361
-0,9063721
-3,6254883
-1,1077881
-7,3516846
-11,782837
-6,2438965
-6,3446045
4,0283203
-4,6325684
-12,185669
-4,2297363
-11,178589
-8,258057
-5,9417725
-7,2509766
-10,171509
-9,869385
-2,9205322
-8,157349
-4,7332764
-14,804077
-11,581421
-13,394165
-16,415405
-10,171509
-5,2368164
-3,0212402
-0,80566406
-1,3092041
-3,7261963
-4,3304443
-2,1148682
4,8339844
-2,3162842
-1,1077881
2,3162842
2,9205322
4,1290283
4,3304443
-0,80566406
-5,9417725
-5,6396484
2,3162842
7,3516846
9,063721
7,7545166
4,9346924
4,2297363
9,365845
14,199829
15,609741
8,660889
5,9417725
3,5247803
1,3092041
-7,6538086
-5,2368164
-5,9417725
-9,164429
-12,789917
-1,9134521
0,9063721
4,0283203
8,761597
12,185669
5,7403564
3,5247803
3,7261963
0,80566406
6,7474365
-0,50354004
7,2509766
-0,50354004
0,40283203
2,9205322
3,7261963
-0,30212402
-1,8127441
-0,80566406
-3,4240723
0,10070801
0,50354004
-6,7474365
-2,5177002
0,30212402
-4,1290283
-7,0495605
-9,567261
-4,4311523
-5,7403564
-10,574341
-8,560181
-4,0283203
1,3092041
-3,9276123
-3,4240723
-8,963013
-9,265137
-10,876465
-11,279297
-8,358765
-2,4169922
4,7332764
-0,9063721
6,7474365
3,7261963
1,1077881
-1,5106201
-2,5177002
-6,3446045
-3,5247803
-0,9063721
-7,9559326
-14,703369
-1,9134521
-2,5177002
-13,796997
-8,761597
-9,567261
-13,796997
-10,574341
-7,6538086
-7,5531006
-3,3233643
-9,667969
-9,466553
-13,998413
-10,171509
-16,71753
-7,2509766
-8,358765
-4,3304443
-5,9417725
1,6113281
-3,1219482
-5,3375244
-2,3162842
-8,862305
-2,4169922
2,5177002
0,20141602
1,3092041
-0,10070801
-3,5247803
-3,1219482
2,5177002
-1,5106201
4,5318604
8,258057
6,6467285
0,9063721
1,2084961
-6,6467285
-5,0354004
3,0212402
-11,984253
-3,1219482
-2,8198242
-3,7261963
-5,6396484
-4,6325684
-4,9346924
-5,5389404
-6,6467285
3,5247803
4,7332764
0,9063721
7,2509766
6,6467285
-0,9063721
-4,2297363
-6,3446045
-12,185669
-9,970093
-11,178589
-9,164429
-3,0212402
-2,8198242
-10,675049
-12,789917
-10,876465
-10,272217
-2,2155762
-2,5177002
4,2297363
1,8127441
-1,1077881
-4,3304443
1,8127441
-2,7191162
15,206909
-1,4099121
-1,7120361
-14,904785
-4,1290283
-5,7403564
-7,0495605
-2,6184082
-3,8269043
-8,963013
-3,9276123
-11,178589
-11,883545
-9,970093
-8,056641
-13,595581
-13,092041
-10,372925
-9,466553
-9,970093
-9,466553
-6,2438965
-11,782837
-1,1077881
-5,3375244
-6,1431885
-9,466553
-6,9488525
-0,70495605
-1,6113281
0,70495605
-5,4382324
-10,977173
-1,7120361
-2,8198242
-7,1502686
-4,6325684
-3,2226562
-7,7545166
-8,358765
-10,574341
-8,258057
-10,574341
-7,2509766
-10,372925
-10,574341
-8,258057
-2,6184082
-1,9134521
-1,1077881
-6,1431885
-0,9063721
-3,1219482
-9,164429
-5,4382324
-7,8552246
-2,9205322
-0,10070801
-1,1077881
2,1148682
0
6,1431885
9,667969
8,056641
3,7261963
3,4240723
0,50354004
-0,10070801
-0,10070801
-1,6113281
4,1290283
-0,80566406
2,0141602
3,0212402
4,0283203
1,1077881
2,5177002
4,1290283
-6,1431885
-0,60424805
2,9205322
-2,5177002
-8,358765
-6,5460205
-7,3516846
2,0141602
-6,7474365
-0,30212402
-0,70495605
-4,4311523
-6,6467285
-7,2509766
-6,1431885
-4,6325684
-7,8552246
-4,2297363
1,2084961
-7,3516846
4,0283203
8,056641
6,1431885
0,70495605
0,70495605
-11,682129
-6,9488525
-3,7261963
0,70495605
6,9488525
4,7332764
2,3162842
-0,10070801
-3,5247803
-6,1431885
-3,0212402
7,8552246
-3,1219482
-6,3446045
-0,9063721
-1,8127441
2,8198242
-1,5106201
3,6254883
-0,9063721
-3,3233643
-4,1290283
1,8127441
0
-8,358765
-8,761597
-6,5460205
-5,1361084
-10,876465
-0,60424805
-3,1219482
-1,8127441
5,9417725
0,9063721
-7,9559326
-4,0283203
-5,7403564
-6,4453125
-6,8481445
-8,963013
-5,8410645
-12,689209
-2,9205322
-9,164429
4,5318604
0,60424805
9,063721
-6,0424805
-2,7191162
-0,70495605
-4,2297363
0,70495605
3,6254883
-7,6538086
-7,1502686
-8,963013
-5,5389404
-5,9417725
-10,574341
-6,3446045
-10,574341
-9,365845
-13,595581
-9,567261
-6,9488525
-1,3092041
2,2155762
0
-5,5389404
-4,3304443
-13,394165
-5,2368164
-1,0070801
-5,1361084
-3,1219482
-5,6396484
-10,876465
-1,8127441
-6,4453125
-2,2155762
-8,358765
-8,660889
-14,099121
-5,9417725
-2,0141602
-0,10070801
-2,5177002
-0,9063721
-1,4099121
5,4382324
-3,7261963
-3,5247803
-0,80566406
-0,70495605
-3,6254883
-5,9417725
-7,8552246
-2,1148682
-9,970093
-7,5531006
-11,077881
-9,164429
-13,192749
-9,970093
-4,5318604
-10,070801
-12,789917
-17,22107
-15,005493
-4,5318604
-9,567261
-1,1077881
7,8552246
7,7545166
7,6538086
5,3375244
5,1361084
6,5460205
4,2297363
2,6184082
-2,1148682
3,9276123
3,5247803
7,8552246
10,977173
3,5247803
4,9346924
4,0283203
-2,5177002
0,50354004
2,5177002
-3,1219482
-2,1148682
-4,2297363
-3,1219482
1,9134521
1,6113281
0,40283203
5,3375244
1,6113281
5,7403564
16,516113
0,50354004
-0,40283203
0,40283203
-3,1219482
-10,574341
-12,588501
-16,21399
-22,457886
-15,609741
-10,775757
-12,387085
-13,595581
-24,874878
-20,343018
-15,911865
-12,387085
-10,574341
-7,8552246
-13,494873
-8,358765
1,7120361
1,3092041
-2,9205322
-2,8198242
-10,473633
-2,1148682
-2,6184082
4,5318604
-3,5247803
-6,7474365
-2,5177002
-2,4169922
-6,6467285
-9,265137
0,80566406
0,70495605
-5,1361084
-7,5531006
-4,4311523
-8,358765
-3,6254883
-4,2297363
-7,4523926
4,5318604
-1,4099121
-3,5247803
-5,6396484
-3,1219482
-7,1502686
-4,4311523
-5,9417725
-11,581421
-5,1361084
-13,595581
-9,466553
-1,7120361
-1,9134521
-6,8481445
-9,265137
-10,171509
-2,6184082
2,6184082
0,20141602
-3,2226562
-2,7191162
-6,6467285
-2,9205322
-2,8198242
2,4169922
-3,3233643
-10,473633
2,3162842
9,063721
10,171509
15,509033
21,652222
14,804077
15,307617
9,768677
2,9205322
1,5106201
0,80566406
-3,7261963
-5,1361084
-2,7191162
-4,9346924
-1,1077881
0,20141602
-6,9488525
1,1077881
5,2368164
1,4099121
2,2155762
-0,60424805
3,3233643
1,3092041
-0,10070801
3,9276123
-4,3304443
1,9134521
1,7120361
6,9488525
4,5318604
4,3304443
-1,3092041
-2,2155762
-4,0283203
-5,1361084
-7,3516846
-4,5318604
-3,1219482
-5,7403564
-4,3304443
-3,2226562
-7,8552246
-8,358765
-7,3516846
-3,7261963
0,70495605
2,2155762
1,4099121
2,2155762
1,0070801
6,6467285
-1,4099121
2,3162842
-4,7332764
1,2084961
-2,0141602
-5,8410645
-2,5177002
-0,9063721
1,8127441
-7,5531006
2,5177002
-7,3516846
-3,4240723
-8,258057
-5,3375244
-3,3233643
-1,2084961
-5,3375244
-0,50354004
-2,0141602
-2,6184082
-1,6113281
10,574341
-7,1502686
-7,5531006
-5,7403564
1,1077881
-10,675049
-9,970093
-10,372925
-13,897705
-5,4382324
-9,667969
-5,1361084
-6,2438965
-5,2368164
-2,4169922
-3,5247803
-7,6538086
-4,1290283
-11,178589
-2,3162842
-4,3304443
-6,3446045
-9,567261
-11,782837
-3,2226562
-9,164429
-3,4240723
-6,6467285
-8,963013
-2,7191162
-6,9488525
-6,3446045
-9,567261
-7,9559326
-17,22107
-13,494873
-10,876465
-11,077881
-11,077881
-8,056641
-4,5318604
-6,8481445
-0,10070801
10,876465
8,258057
12,890625
11,782837
17,523193
14,602661
18,22815
18,328857
15,710449
1,9134521
-1,8127441
-7,6538086
-12,084961
-17,22107
-15,509033
-22,055054
-18,22815
-21,24939
-24,472046
-15,106201
-6,1431885
-0,50354004
-0,10070801
-1,1077881
4,2297363
-0,70495605
-0,60424805
-0,70495605
1,0070801
9,164429
1,8127441
-1,0070801
-3,0212402
0,50354004
0,60424805
1,4099121
2,5177002
0,9063721
3,4240723
2,6184082
3,8269043
7,0495605
1,1077881
0,70495605
1,1077881
4,1290283
0,40283203
-1,1077881
3,8269043
3,8269043
2,3162842
-0,50354004
-3,0212402
-8,862305
-2,2155762
0,50354004
-0,70495605
0,30212402
-13,998413
-4,3304443
-1,4099121
-5,4382324
-10,171509
-4,7332764
0,70495605
-7,9559326
-7,4523926
-2,1148682
-8,660889
-1,5106201
-2,9205322
-2,0141602
0,10070801
-1,5106201
2,3162842
3,3233643
6,8481445
9,365845
1,9134521
-1,6113281
-6,9488525
-2,9205322
-1,9134521
-3,8269043
0,60424805
-2,4169922
-5,8410645
-4,5318604
-5,1361084
3,5247803
-7,8552246
-5,6396484
0,9063721
-0,30212402
-3,9276123
0
-2,8198242
-2,3162842
-0,80566406
-2,6184082
-0,20141602
1,3092041
-0,10070801
3,2226562
-2,7191162
7,7545166
2,9205322
-2,4169922
2,4169922
-2,4169922
-7,2509766
-0,70495605
-2,1148682
2,2155762
-4,4311523
-9,869385
-6,9488525
-2,5177002
-12,185669
-5,9417725
0,10070801
0,60424805
-0,50354004
4,9346924
7,9559326
2,9205322
4,2297363
14,602661
3,4240723
7,9559326
3,5247803
2,9205322
3,0212402
2,7191162
-0,70495605
-5,4382324
-6,3446045
-5,2368164
-3,2226562
-2,3162842
-2,0141602
-9,869385
-2,1148682
1,1077881
0,30212402
5,9417725
-1,8127441
4,7332764
-1,5106201
-3,4240723
-2,6184082
-0,60424805
-0,50354004
0,70495605
-0,60424805
4,5318604
4,0283203
0,70495605
3,9276123
6,1431885
6,5460205
6,9488525
14,099121
10,675049
7,9559326
6,9488525
0,9063721
-6,0424805
-9,667969
-12,487793
-12,185669
-18,328857
-11,581421
-10,272217
-14,099121
-12,588501
-20,544434
-26,586914
-21,954346
-21,24939
-10,574341
-4,8339844
5,5389404
2,6184082
5,3375244
4,3304443
2,1148682
3,9276123
1,9134521
11,682129
2,4169922
3,1219482
-9,970093
-1,6113281
-0,80566406
-4,8339844
-3,8269043
0
0,30212402
-7,1502686
0,9063721
2,2155762
2,8198242
8,560181
6,7474365
5,3375244
7,0495605
-6,9488525
-5,9417725
-3,5247803
3,7261963
0,70495605
0,50354004
0,9063721
-7,3516846
-4,8339844
-7,6538086
-5,3375244
-6,1431885
-7,3516846
0,10070801
1,3092041
-2,5177002
-11,178589
-6,9488525
-7,1502686
-6,3446045
-2,5177002
-3,0212402
-2,1148682
-0,20141602
-1,1077881
-4,3304443
-4,5318604
2,3162842
-9,869385
-8,358765
-2,2155762
-2,4169922
-3,0212402
-6,9488525
0,70495605
2,3162842
-0,40283203
3,5247803
17,321777
0,50354004
-2,5177002
-7,1502686
-5,7403564
-7,1502686
-5,1361084
-2,7191162
-7,1502686
-8,761597
-4,1290283
-9,466553
-1,2084961
7,5531006
-1,5106201
-4,0283203
0,9063721
-3,4240723
-3,0212402
4,2297363
-0,70495605
9,869385
-4,1290283
-3,7261963
-9,970093
-10,070801
-10,574341
0,40283203
-1,6113281
-0,30212402
3,5247803
-6,4453125
-4,0283203
-5,2368164
-4,1290283
-6,2438965
-1,9134521
-11,682129
-7,0495605
-4,1290283
-2,6184082
-3,2226562
-1,9134521
-0,70495605
-2,2155762
-5,9417725
-6,9488525
-5,1361084
2,4169922
5,1361084
6,1431885
4,3304443
-1,9134521
2,7191162
-5,4382324
-6,1431885
-4,0283203
-10,272217
-10,876465
-8,963013
-8,258057
-0,20141602
-1,0070801
2,1148682
-1,1077881
-4,0283203
-1,1077881
-4,8339844
1,4099121
-0,10070801
1,1077881
-7,0495605
2,7191162
1,1077881
0,9063721
-1,9134521
-6,6467285
-12,890625
-1,9134521
-2,5177002
-1,3092041
7,6538086
2,9205322
-5,2368164
0,60424805
-2,1148682
0
-8,358765
0,50354004
4,5318604
-5,5389404
-1,6113281
-3,9276123
-7,7545166
-7,8552246
-13,192749
-3,9276123
-5,5389404
-2,9205322
-11,581421
-5,1361084
-7,8552246
-5,7403564
-2,3162842
-7,6538086
-3,9276123
-0,40283203
-1,7120361
-7,0495605
4,4311523
4,1290283
-1,1077881
1,4099121
-2,7191162
2,4169922
-4,5318604
-3,9276123
-13,796997
-3,6254883
-6,6467285
7,2509766
10,775757
2,6184082
3,3233643
3,7261963
1,3092041
-0,70495605
-6,1431885
0,9063721
-4,5318604
0,20141602
-1,9134521
-1,3092041
-7,9559326
-8,963013
-7,2509766
-6,5460205
-9,466553
-7,7545166
-3,5247803
-10,070801
-5,3375244
-1,3092041
0,30212402
-2,6184082
-1,5106201
-2,8198242
0,60424805
-1,4099121
-1,5106201
-0,40283203
1,2084961
-0,10070801
-4,7332764
1,3092041
-6,3446045
0,50354004
13,394165
-2,7191162
-4,8339844
1,5106201
-1,2084961
-0,10070801
-3,2226562
-1,6113281
-0,30212402
0,30212402
-1,1077881
-1,9134521
1,7120361
0,60424805
-4,0283203
-9,265137
-1,7120361
3,9276123
-2,9205322
-7,3516846
-6,1431885
-11,178589
-7,5531006
-12,286377
-10,372925
-9,265137
-11,581421
-11,581421
-6,5460205
-8,358765
-4,6325684
-1,5106201
2,3162842
-5,7403564
-0,9063721
-4,8339844
-12,689209
-9,466553
-6,1431885
-7,3516846
0,50354004
6,0424805
6,8481445
3,6254883
5,3375244
2,6184082
1,7120361
0,50354004
0,70495605
-4,4311523
-0,60424805
-3,8269043
-4,5318604
-6,1431885
-5,9417725
-0,50354004
-8,963013
-1,8127441
-8,358765
-2,0141602
-8,761597
-3,8269043
-2,7191162
1,9134521
3,0212402
-5,0354004
-8,358765
-2,6184082
-3,8269043
-0,20141602
-1,3092041
-1,3092041
-5,8410645
-0,80566406
-1,9134521
-0,70495605
-4,5318604
-14,804077
-3,1219482
-2,3162842
-3,7261963
10,775757
3,9276123
5,9417725
-5,5389404
1,1077881
0,10070801
4,5318604
2,0141602
-6,4453125
-5,1361084
-2,1148682
-11,581421
-6,1431885
-12,789917
-12,588501
-12,084961
-9,063721
-3,4240723
-9,567261
-7,1502686
-1,6113281
-0,9063721
0,10070801
1,2084961
-8,761597
-9,365845
-4,3304443
-4,0283203
-7,6538086
-7,5531006
-7,5531006
-2,3162842
-1,3092041
-6,1431885
0,50354004
-13,998413
0,40283203
2,6184082
5,5389404
1,5106201
-2,0141602
4,1290283
-0,50354004
5,7403564
8,157349
6,8481445
5,2368164
3,4240723
4,5318604
-0,60424805
-0,10070801
-1,3092041
-4,7332764
-5,7403564
-5,3375244
-2,2155762
-4,7332764
-5,9417725
-1,9134521
-2,3162842
2,5177002
2,5177002
0,30212402
-3,1219482
-1,2084961
0,9063721
-2,1148682
11,682129
-2,2155762
-0,9063721
1,3092041
13,595581
-9,970093
-2,4169922
-3,7261963
-3,4240723
-4,0283203
3,8269043
2,8198242
-5,5389404
-3,7261963
-7,3516846
-9,063721
-6,7474365
-4,3304443
-4,0283203
-6,9488525
-8,660889
-6,0424805
-5,3375244
-5,5389404
-6,1431885
-2,6184082
-2,8198242
-8,056641
-7,7545166
-11,279297
-13,897705
-21,350098
-13,998413
-13,696289
-18,026733
-14,199829
-10,977173
-15,811157
-9,567261
-9,164429
-11,984253
-11,782837
-6,8481445
-1,9134521
-2,1148682
5,5389404
11,682129
4,1290283
16,818237
16,314697
8,056641
7,1502686
4,8339844
4,7332764
-7,9559326
1,7120361
-6,5460205
-5,3375244
-9,063721
-5,4382324
-5,1361084
-10,574341
-2,3162842
-0,10070801
-0,9063721
-1,9134521
-5,5389404
-0,9063721
-3,8269043
-7,5531006
-0,60424805
-1,1077881
-2,7191162
-0,50354004
-2,6184082
0,40283203
-4,4311523
-8,459473
-0,10070801
-3,9276123
-2,3162842
-1,1077881
-5,7403564
-0,50354004
0,9063721
2,5177002
1,4099121
3,7261963
4,9346924
-1,0070801
-4,7332764
-0,30212402
-0,10070801
-1,7120361
-7,9559326
-4,9346924
-5,1361084
-6,7474365
-5,9417725
-9,365845
-5,4382324
-10,070801
-11,682129
-0,10070801
-2,9205322
-5,7403564
-8,358765
-13,998413
-3,2226562
-5,9417725
-7,5531006
-10,574341
-6,7474365
6,1431885
-6,9488525
-2,7191162
-4,4311523
-3,5247803
-1,5106201
-6,4453125
-2,7191162
-5,7403564
-5,7403564
-4,8339844
-4,8339844
-1,8127441
-0,70495605
0,10070801
-0,60424805
-1,6113281
0,10070801
0,80566406
-2,7191162
-6,3446045
-16,314697
-6,7474365
-7,2509766
3,9276123
-3,0212402
-0,10070801
-3,9276123
-1,7120361
0,10070801
-1,5106201
-1,5106201
-3,5247803
-6,7474365
-2,1148682
-6,3446045
-4,1290283
-3,9276123
-13,192749
-4,0283203
-5,0354004
-3,4240723
-3,3233643
-4,3304443
-7,6538086
0,40283203
-7,9559326
0,50354004
-9,869385
-5,7403564
-4,8339844
-14,300537
-7,0495605
0,70495605
-4,6325684
1,8127441
-2,5177002
-2,5177002
-2,5177002
-0,70495605
-5,4382324
-4,3304443
0,40283203
-2,6184082
-3,6254883
-1,5106201
-8,862305
-1,7120361
0,20141602
-0,30212402
-4,5318604
-3,7261963
3,8269043
-8,056641
1,2084961
-1,7120361
0,40283203
1,7120361
-9,567261
-0,40283203
-2,2155762
3,7261963
-3,3233643
0,10070801
-4,3304443
-4,9346924
2,7191162
2,9205322
-0,10070801
10,070801
5,3375244
17,523193
5,5389404
3,7261963
5,5389404
5,3375244
7,5531006
3,8269043
3,9276123
-2,7191162
-7,5531006
-11,581421
-13,394165
-5,6396484
-2,8198242
-8,358765
-7,3516846
-9,869385
-15,005493
-11,279297
-7,7545166
1,1077881
-10,272217
-4,5318604
-10,473633
-11,883545
-6,3446045
0,30212402
-4,3304443
-3,8269043
7,6538086
2,9205322
2,6184082
-5,2368164
-0,60424805
-2,1148682
-5,2368164
0,50354004
0,70495605
0,70495605
5,5389404
2,9205322
2,5177002
0,80566406
-2,1148682
2,2155762
6,0424805
6,3446045
6,6467285
7,2509766
7,6538086
5,8410645
4,1290283
5,0354004
7,1502686
7,5531006
9,164429
-0,9063721
3,3233643
3,9276123
1,7120361
0,30212402
2,7191162
-3,9276123
-4,7332764
-5,0354004
-10,070801
-7,5531006
-16,818237
-15,005493
-2,6184082
-10,876465
-3,8269043
-11,782837
-4,4311523
-5,9417725
-6,1431885
-7,7545166
-0,70495605
0,9063721
0,50354004
2,5177002
2,5177002
3,4240723
-0,30212402
-5,6396484
0,50354004
-0,80566406
-3,6254883
-11,581421
-7,3516846
-5,7403564
-4,5318604
-0,70495605
-6,5460205
-2,8198242
-0,70495605
-9,164429
1,5106201
12,689209
-1,0070801
-6,2438965
-4,1290283
3,4240723
-4,9346924
-4,6325684
-5,4382324
-6,3446045
-0,50354004
-4,2297363
-1,1077881
-0,70495605
-2,5177002
-0,40283203
-2,5177002
-7,5531006
-3,1219482
-7,1502686
0,30212402
-3,9276123
-1,8127441
-6,1431885
-6,9488525
-6,9488525
-5,7403564
-1,1077881
-2,1148682
6,2438965
9,466553
3,3233643
2,7191162
-0,10070801
2,6184082
0,50354004
-4,5318604
-0,30212402
-3,7261963
-4,6325684
-4,1290283
-6,8481445
-7,9559326
-7,2509766
-5,0354004
-10,372925
-4,1290283
-13,595581
-9,869385
-9,365845
-6,3446045
-0,10070801
-7,1502686
-7,5531006
-5,4382324
-4,8339844
-8,459473
-1,4099121
-4,0283203
-4,9346924
-3,0212402
-4,5318604
-4,1290283
-4,4311523
-6,5460205
-4,4311523
-9,970093
-9,869385
-7,3516846
-4,7332764
-8,761597
-6,3446045
-3,7261963
-0,30212402
-0,9063721
-4,5318604
1,1077881
-15,106201
-5,5389404
2,4169922
-0,9063721
-1,5106201
-3,5247803
0,20141602
1,3092041
-6,7474365
-4,8339844
-3,8269043
-12,185669
-5,3375244
-7,9559326
-5,5389404
-2,7191162
-5,9417725
-3,0212402
-3,9276123
-3,0212402
-4,1290283
-5,9417725
-5,5389404
-2,6184082
-3,4240723
-9,063721
-6,1431885
-5,9417725
-2,3162842
-2,5177002
-4,2297363
-0,10070801
-4,2297363
9,164429
-2,7191162
-7,2509766
-8,258057
-2,7191162
-12,185669
-11,178589
-7,5531006
-2,9205322
-4,4311523
-1,5106201
-3,0212402
-3,7261963
-6,9488525
-7,6538086
-3,8269043
-0,9063721
-0,70495605
1,4099121
7,4523926
0,30212402
-3,5247803
-3,5247803
-5,8410645
-4,1290283
-3,7261963
-7,3516846
-12,689209
-6,7474365
-6,5460205
1,1077881
3,0212402
-0,10070801
-2,3162842
1,4099121
-1,1077881
-11,077881
-9,164429
0,10070801
-0,10070801
1,3092041
1,7120361
8,157349
11,077881
1,3092041
0,10070801
0,50354004
-2,1148682
-10,876465
-9,265137
-13,092041
-8,358765
-1,6113281
-9,365845
-9,164429
-15,005493
-13,796997
-5,7403564
-13,293457
-11,682129
-7,7545166
-6,6467285
13,796997
-1,1077881
-4,3304443
-1,4099121
-1,1077881
-0,60424805
-1,5106201
-2,6184082
-5,0354004
-0,60424805
2,4169922
4,2297363
-3,5247803
4,4311523
-3,4240723
-5,8410645
-3,0212402
-1,2084961
-6,3446045
-2,3162842
2,9205322
-3,9276123
-5,1361084
-0,30212402
-5,1361084
0,20141602
7,0495605
0,40283203
4,0283203
0,60424805
-3,6254883
0,20141602
-1,0070801
-2,4169922
-6,0424805
6,7474365
2,8198242
-0,9063721
-6,5460205
-13,192749
-4,8339844
-3,2226562
-12,286377
-1,9134521
-6,4453125
-2,7191162
-3,5247803
-1,9134521
-2,3162842
-3,1219482
-6,2438965
-15,609741
-1,0070801
0,20141602
-0,60424805
0
-4,1290283
-0,9063721
6,4453125
4,6325684
2,6184082
0,30212402
2,4169922
-0,60424805
-1,9134521
-4,4311523
6,1431885
4,4311523
2,2155762
6,2438965
-0,10070801
1,8127441
-1,1077881
-4,4311523
1,8127441
3,6254883
0,70495605
-1,8127441
-0,10070801
-2,3162842
4,2297363
0,50354004
8,258057
2,9205322
0,10070801
0,20141602
-6,0424805
-5,6396484
-1,1077881
-4,2297363
2,7191162
-2,6184082
-3,4240723
-0,10070801
0
-12,487793
-3,1219482
-0,30212402
4,0283203
3,5247803
5,4382324
16,818237
-1,2084961
4,5318604
5,3375244
-0,9063721
4,0283203
-0,80566406
4,4311523
5,8410645
-3,6254883
-8,056641
-15,609741
-9,164429
-2,7191162
-18,832397
-20,24231
-18,22815
-19,638062
-7,1502686
-16,012573
-7,1502686
-3,1219482
-8,358765
-3,1219482
-8,862305
-6,4453125
-8,761597
-11,581421
-7,8552246
-5,9417725
2,9205322
1,3092041
-0,20141602
-2,4169922
0,60424805
1,6113281
4,5318604
-1,6113281
-2,6184082
-6,1431885
-0,9063721
-1,1077881
-0,70495605
13,394165
1,9134521
4,1290283
1,1077881
-1,7120361
-0,30212402
-1,6113281
5,9417725
-2,6184082
-5,7403564
-4,6325684
-6,5460205
-4,6325684
-1,9134521
-5,8410645
0
1,0070801
-5,6396484
-4,7332764
0,80566406
0,50354004
1,5106201
-0,70495605
0,60424805
-1,1077881
-3,1219482
-10,876465
-5,2368164
-6,4453125
-8,459473
-12,387085
-11,883545
-10,171509
-7,4523926
-9,869385
-9,365845
1,3092041
1,9134521
1,8127441
-7,2509766
-6,4453125
0,70495605
-2,3162842
-5,0354004
-7,1502686
-2,7191162
-1,0070801
-4,7332764
-6,0424805
-4,7332764
-2,1148682
-0,70495605
-16,616821
-3,1219482
-2,0141602
-9,567261
-3,0212402
1,7120361
-1,3092041
-2,9205322
-0,20141602
-0,70495605
-6,2438965
-4,5318604
-5,9417725
-5,1361084
-5,5389404
-1,9134521
-0,10070801
-5,4382324
-3,7261963
-2,0141602
-0,50354004
-1,2084961
6,7474365
2,4169922
-5,5389404
-3,8269043
-3,3233643
1,6113281
-0,10070801
-3,5247803
-1,5106201
-5,7403564
0,10070801
-4,3304443
-5,9417725
-4,5318604
-3,8269043
-2,8198242
-5,3375244
-7,5531006
-9,970093
-11,480713
-12,588501
-10,977173
-16,818237
-4,9346924
-13,796997
-11,279297
-8,459473
-8,963013
-9,365845
-5,8410645
-17,72461
-5,1361084
2,9205322
3,4240723
3,3233643
-5,0354004
-2,8198242
-6,8481445
4,0283203
3,6254883
0,70495605
-8,258057
-2,8198242
0,70495605
5,3375244
4,3304443
2,1148682
-0,80566406
1,8127441
-3,7261963
-7,1502686
-2,0141602
0,9063721
-3,2226562
-7,6538086
-0,40283203
-2,2155762
-2,5177002
-1,9134521
-5,6396484
1,4099121
-1,3092041
2,1148682
-1,3092041
-5,1361084
-4,1290283
-8,963013
-2,1148682
-6,7474365
-5,7403564
-0,50354004
-5,2368164
-6,9488525
-5,9417725
-4,5318604
-9,365845
0,70495605
2,3162842
2,9205322
2,5177002
5,0354004
1,7120361
4,9346924
4,9346924
2,8198242
-0,9063721
-6,1431885
0,20141602
-1,1077881
-1,1077881
-0,30212402
-0,30212402
-0,30212402
-0,50354004
4,5318604
3,5247803
-0,30212402
-1,2084961
-1,3092041
-1,7120361
1,1077881
-1,2084961
-5,3375244
-0,30212402
-0,10070801
2,0141602
-1,0070801
-0,40283203
-5,9417725
-2,2155762
0,70495605
-0,10070801
-7,1502686
-4,0283203
-2,1148682
-1,1077881
-2,3162842
-3,5247803
0,60424805
-3,9276123
-4,8339844
-0,9063721
4,8339844
-10,775757
1,5106201
1,9134521
-1,9134521
2,7191162
9,365845
2,5177002
0,9063721
4,1290283
2,2155762
-0,10070801
4,2297363
0,60424805
-6,1431885
-4,5318604
-1,3092041
-2,2155762
-4,3304443
-3,7261963
-3,6254883
5,1361084
-6,7474365
-1,5106201
0,70495605
-10,473633
-10,775757
-1,9134521
1,3092041
-4,0283203
0
-0,30212402
0,40283203
4,8339844
3,7261963
-0,80566406
-0,50354004
0,80566406
-0,50354004
1,8127441
-1,9134521
-4,1290283
-0,9063721
-3,9276123
-2,7191162
-5,9417725
-5,5389404
-7,9559326
3,9276123
1,6113281
-1,2084961
-0,10070801
-4,1290283
-3,6254883
-3,1219482
-4,9346924
0,40283203
-1,1077881
-6,9488525
-0,9063721
-2,2155762
-5,4382324
-0,80566406
-2,5177002
-6,1431885
-5,9417725
-5,4382324
-4,6325684
-8,358765
-10,977173
-11,883545
-8,560181
-6,7474365
-2,1148682
-7,6538086
-3,4240723
2,5177002
-5,5389404
-0,70495605
-6,6467285
0,9063721
6,4453125
1,8127441
1,3092041
-4,0283203
-7,5531006
-2,7191162
-4,7332764
-3,0212402
-0,20141602
-5,3375244
-4,4311523
-1,5106201
4,3304443
-0,60424805
-1,4099121
1,3092041
-0,80566406
1,1077881
2,1148682
-2,4169922
0,10070801
2,8198242
2,3162842
-3,1219482
-5,7403564
-7,5531006
0,40283203
3,8269043
-0,50354004
3,4240723
-0,40283203
-0,20141602
2,8198242
-1,0070801
1,6113281
-2,4169922
-8,761597
-5,5389404
2,9205322
4,6325684
-1,5106201
3,9276123
-1,2084961
3,5247803
0,70495605
-3,1219482
-1,7120361
-8,761597
-0,70495605
-7,3516846
-6,3446045
-3,9276123
-12,991333
-6,1431885
-4,3304443
-3,4240723
-2,5177002
-7,5531006
-8,963013
-5,7403564
-2,8198242
-0,9063721
5,1361084
-3,2226562
-2,4169922
-4,0283203
-5,4382324
-2,9205322
-4,1290283
-4,5318604
1,1077881
-1,0070801
0,60424805
-0,50354004
-0,70495605
-2,2155762
-0,9063721
-4,3304443
-3,2226562
-8,358765
-0,10070801
0,9063721
0,10070801
3,8269043
-11,077881
-5,9417725
-0,30212402
-4,1290283
2,8198242
-0,50354004
3,8269043
1,2084961
-6,3446045
-3,6254883
-2,1148682
-6,7474365
0,20141602
-3,5247803
-6,7474365
-11,782837
-1,3092041
-6,2438965
-6,0424805
-2,5177002
-1,9134521
-7,0495605
-0,9063721
-11,682129
-2,7191162
-5,7403564
-5,7403564
-4,7332764
-3,5247803
-4,3304443
-10,272217
-1,3092041
18,026733
9,265137
-10,977173
99,298096
329,3152
573,3307
673,0316
632,8491
588,9404
523,3795
473,73047
448,8556
424,48425
400,41504
365,16724
277,9541
192,15088
102,62146
51,159668
11,480713
-0,10070801
-60,12268
-103,427124
-108,66394
-116,72058
-132,33032
-202,82593
-287,42065
-352,47803
-349,96033
-338,4796
-258,41675
-197,28699
-165,66467
-170,09583
-188,22327
-199,60327
-217,83142
-228,60718
-236,16028
-235,95886
-229,81567
-207,15637
-182,98645
-172,81494
-167,98096
-175,53406
-176,23901
-152,1698
-127,597046
-94,46411
-79,055786
-82,07703
-82,47986
-93,759155
-97,787476
-104,03137
-100,20447
-104,837036
-98,59314
-80,4657
-80,163574
-78,149414
-78,95508
-74,82605
-69,08569
-70,495605
-78,25012
-73,41614
-50,454712
27,090454
178,15247
240,59143
224,37744
202,5238
190,43884
192,55371
212,89673
223,7732
210,17761
182,18079
150,75989
116,11633
100,40588
87,716675
79,35791
56,69861
54,483032
25,881958
6,1431885
-18,933105
-71,40198
-145,9259
-216,92505
-239,38293
-233,54187
-179,26025
-114,4043
-62,64038
-60,424805
-63,546753
-104,73633
-155,79529
-138,47351
-24,673462
82,9834
106,04553
55,993652
-17,623901
-91,14075
34,643555
230,72205
391,65344
452,8839
434,9579
357,61414
270,80383
230,62134
188,52539
127,697754
84,49402
15,206909
-9,063721
26,78833
55,69153
66,970825
69,58923
34,34143
28,29895
29,406738
-53,67737
-141,59546
-173,5199
-79,055786
55,892944
114,90784
130,31616
104,837036
86,206055
48,641968
18,127441
130,92041
138,97705
70,69702
14,804077
-2,5177002
-39,578247
-77,948
-122,058105
-166,0675
-194,06433
-227,19727
-265,66772
-296,7865
-237,26807
-152,27051
-122,66235
-71,30127
-81,674194
-103,22571
-197,08557
-349,7589
-441,00037
-249,65515
251,87073
814,7278
1111,3129
1115,8447
941,922
796,60034
693,0725
587,6312
466,27808
363,85803
302,22473
251,97144
258,61816
270,1996
293,0603
202,5238
99,70093
3,9276123
-116,21704
-244,0155
-376,74866
-490,24658
-503,84216
-343,515
-279,1626
-335,05554
-388,6322
-370,10193
-408,8745
-504,84924
-609,6863
-674,74365
-754,10156
-805,9662
-785,22034
-736,7798
-678,26843
-589,444
-485,614
-342,2058
-224,17603
-153,78113
-56,69861
31,723022
128,60413
319,94934
550,7721
733,65784
752,59094
544,6289
241,59851
-92,85278
-293,36243
-259,52454
-127,79846
-111,483765
-33,233643
96,47827
145,52307
117,32483
181,77795
501,02234
508,87756
280,87463
90,03296
139,07776
401,0193
573,8342
620,66345
622,2748
488,73596
398,8037
432,33948
498,80676
469,90356
249,85657
23,062134
-130,01404
-263,15002
-414,41345
-531,43616
-677,8656
-792,2699
-856,4209
-929,0314
-936,08093
-490,75012
102,822876
341,60156
395,0775
329,6173
196,68274
99,09668
-7,1502686
-64,35242
-111,38306
-138,17139
-143,3075
-177,2461
-81,47278
28,399658
-107,05261
-474,1333
-762,4603
-955,11475
-900,02747
-751,58386
-612,00256
-530,02625
-362,146
-219,03992
-112,69226
-8,560181
-35,85205
-128,80554
-119,84253
-77,142334
27,392578
190,43884
330,52368
436,87134
540,4999
571,51794
544,6289
433,14514
336,76758
238,47656
202,82593
237,06665
308,36792
233,34045
84,09119
-51,663208
-115,20996
-145,42236
-177,2461
-181,073
-141,39404
-90,03296
-31,924438
-7,7545166
-15,509033
-63,64746
-109,06677
-96,37756
-117,12341
-151,26343
-172,91565
-192,25159
-210,0769
-214,81018
-203,93372
-199,09973
-179,15955
-160,62927
-149,14856
-124,77722
-109,87244
-95,67261
-69,28711
-56,497192
-43,00232
-34,744263
-24,975586
-20,24231
-16,415405
-12,487793
-14,099121
-26,889038
-13,092041
-10,171509
-9,164429
-6,9488525
-0,9063721
4,0283203
5,3375244
-8,258057
-9,970093
-9,164429
-8,862305
-4,3304443
-4,5318604
-6,7474365
-0,20141602
-6,5460205
7,6538086
5,3375244
-25,076294
-81,06995
-128,70483
-171,70715
-211,08398
-235,55603
-236,66382
-224,27673
-194,36646
-143,91174
-75,128174
-17,321777
17,825317
72,006226
172,2107
237,26807
222,16187
191,44592
170,59937
158,11157
143,10608
114,10217
69,38782
11,380005
-7,3516846
26,385498
50,454712
55,288696
49,145508
30,212402
25,680542
24,371338
4,6325684
-67,57507
-164,6576
-204,63867
-226,2909
-265,16418
-270,70312
-168,4845
21,652222
138,47351
226,49231
265,86914
275,83923
272,11304
294,77234
337,57324
412,3993
484,50623
522,876
534,4574
431,13098
210,17761
50,857544
-92,752075
-175,93689
-172,91565
-142,099
-98,794556
-100,909424
-118,43262
-131,52466
-148,54431
-150,9613
-128,90625
-96,98181
-86,30676
-74,020386
-67,37366
-60,22339
-62,13684
-44,91577
-11,581421
28,097534
28,198242
-10,977173
14,804077
124,77722
277,8534
300,412
284,3994
339,4867
436,16638
458,42285
424,78638
382,1869
328,91235
250,46082
140,68909
80,26428
-33,33435
-260,63232
-332,43713
-289,3341
-319,94934
-344,11926
-313,60474
-245,72754
-216,92505
-238,9801
-296,38367
-317,12952
-287,72278
-236,26099
-193,96362
-165,06042
-130,21545
-108,66394
-81,87561
-72,10693
-53,67737
-43,50586
-41,290283
-35,751343
-38,067627
-34,94568
-30,81665
-36,4563
-24,472046
-23,162842
-17,019653
-12,387085
-10,574341
-7,9559326
-6,3446045
-1,5106201
11,682129
16,21399
15,408325
13,696289
23,565674
16,415405
20,24231
24,371338
20,645142
24,975586
17,825317
16,314697
16,818237
17,120361
20,947266
18,530273
15,811157
11,682129
19,638062
20,343018
19,73877
19,638062
13,796997
18,026733
19,033813
21,047974
17,22107
18,328857
16,616821
21,853638
27,996826
30,413818
23,162842
23,867798
27,896118
20,24231
18,127441
14,501953
18,832397
19,436646
20,141602
19,73877
5,4382324
4,3304443
2,8198242
8,761597
5,7403564
3,4240723
7,5531006
9,265137
6,1431885
5,7403564
0,70495605
3,8269043
2,9205322
-0,80566406
-0,20141602
-2,7191162
2,5177002
5,3375244
19,73877
22,659302
16,918945
16,616821
4,6325684
8,358765
14,804077
23,565674
22,457886
12,890625
11,077881
12,286377
15,005493
14,602661
20,040894
24,77417
27,191162
28,29895
35,046387
65,3595
64,85596
61,431885
50,05188
55,490112
41,89453
40,283203
34,140015
29,507446
16,918945
0,10070801
-18,429565
-19,134521
-25,680542
-47,332764
-52,871704
-49,749756
-43,50586
-44,311523
-34,039307
-33,9386
-35,650635
-28,29895
-27,694702
-15,408325
-9,164429
-4,5318604
-0,9063721
2,8198242
6,9488525
2,5177002
5,7403564
4,8339844
7,2509766
2,8198242
0,80566406
-4,2297363
-8,358765
-8,157349
-7,3516846
1,3092041
-4,3304443
1,1077881
2,7191162
2,1148682
4,9346924
6,2438965
-3,5247803
0,9063721
-6,0424805
-8,157349
-3,3233643
-0,9063721
2,1148682
-5,3375244
-11,380005
-16,314697
-28,097534
-20,24231
-20,544434
-7,6538086
-1,8127441
1,9134521
2,2155762
7,5531006
13,796997
17,321777
1,9134521
10,775757
5,3375244
7,7545166
2,7191162
-1,5106201
5,5389404
7,3516846
0,9063721
9,466553
10,272217
10,675049
4,9346924
4,1290283
4,1290283
-1,2084961
5,3375244
-3,5247803
-1,3092041
1,4099121
2,0141602
0,10070801
-0,9063721
-0,60424805
1,2084961
6,1431885
-0,60424805
2,1148682
2,6184082
5,8410645
5,7403564
0,9063721
-1,3092041
9,567261
1,5106201
-2,2155762
2,2155762
-3,9276123
-0,10070801
4,1290283
5,0354004
4,2297363
4,2297363
4,2297363
7,4523926
9,567261
13,998413
15,206909
8,660889
5,0354004
0,50354004
0,30212402
0
0,50354004
-4,3304443
-0,80566406
-4,5318604
0,60424805
-0,60424805
7,4523926
-8,258057
-15,005493
-19,839478
-13,192749
-13,595581
-6,3446045
-1,9134521
1,0070801
6,5460205
-0,10070801
2,0141602
-2,9205322
0,9063721
-0,30212402
0,80566406
4,6325684
0,70495605
-5,2368164
3,5247803
1,3092041
3,2226562
10,977173
22,25647
27,493286
26,28479
25,177002
28,399658
22,961426
9,164429
0,70495605
-2,2155762
4,0283203
2,4169922
-2,7191162
-5,4382324
-6,1431885
-13,796997
-11,682129
-4,2297363
-0,20141602
-2,0141602
-9,164429
-5,0354004
-15,609741
-11,581421
-6,2438965
-9,063721
-5,7403564
2,7191162
-6,4453125
-6,7474365
-14,401245
-7,1502686
-7,0495605
-3,9276123
-0,60424805
4,9346924
3,8269043
7,7545166
10,876465
14,501953
16,415405
15,106201
16,21399
22,055054
3,4240723
-2,5177002
-10,372925
-9,365845
-9,365845
-2,9205322
3,0212402
3,7261963
6,4453125
5,9417725
-2,2155762
-8,963013
-10,272217
-12,789917
-11,077881
-16,818237
-21,450806
-15,307617
-9,466553
-10,574341
-6,6467285
-8,056641
6,2438965
-12,890625
1,7120361
-5,1361084
-3,9276123
-7,5531006
-5,1361084
-4,7332764
-5,3375244
1,0070801
0,40283203
-2,8198242
1,1077881
-1,4099121
-1,4099121
-1,2084961
-4,7332764
-6,3446045
2,9205322
-3,1219482
4,3304443
5,9417725
8,459473
3,9276123
2,7191162
0,40283203
-3,0212402
-0,30212402
1,7120361
1,7120361
2,3162842
-2,3162842
-0,40283203
-3,5247803
-3,7261963
0,9063721
-3,5247803
-4,3304443
-8,459473
0,50354004
-9,265137
-6,4453125
-7,9559326
-4,7332764
-10,372925
-7,5531006
-7,2509766
-9,063721
-8,761597
-6,7474365
-7,9559326
-8,258057
-8,459473
-7,0495605
-11,782837
-3,8269043
-8,963013
0,10070801
0,20141602
8,157349
7,5531006
5,4382324
7,7545166
0,80566406
0,9063721
3,3233643
3,7261963
0,9063721
1,0070801
-0,60424805
2,5177002
1,7120361
2,5177002
1,2084961
-0,20141602
20,443726
8,258057
7,8552246
3,7261963
6,0424805
5,4382324
-0,30212402
-0,10070801
-6,1431885
-3,1219482
-0,60424805
0,9063721
-5,7403564
-3,9276123
-7,9559326
-5,6396484
-4,7332764
-14,300537
-15,005493
-12,789917
-15,408325
-19,033813
-13,092041
-14,804077
-7,3516846
-0,70495605
2,9205322
10,574341
12,689209
18,429565
14,904785
15,811157
2,6184082
-5,5389404
-0,10070801
-1,3092041
2,2155762
-0,10070801
-6,7474365
5,4382324
1,3092041
5,8410645
-2,7191162
-0,70495605
-15,106201
-22,25647
-24,572754
-32,226562
-29,708862
-37,564087
-33,43506
-31,82373
-28,903198
-22,558594
-15,710449
-8,358765
-0,20141602
5,5389404
13,293457
19,335938
26,083374
20,443726
20,947266
23,666382
12,185669
6,5460205
6,9488525
4,0283203
3,7261963
2,9205322
-0,60424805
-2,1148682
-3,0212402
-0,30212402
-1,4099121
-1,1077881
-12,286377
-11,178589
-3,7261963
-4,8339844
-1,1077881
1,1077881
1,0070801
-5,4382324
-2,9205322
-3,0212402
-8,963013
-8,560181
-8,560181
0,80566406
4,5318604
8,056641
2,9205322
-1,1077881
2,6184082
-4,6325684
-6,3446045
-8,157349
-11,984253
-7,4523926
-10,272217
-8,358765
-3,0212402
-9,768677
-4,2297363
-11,380005
-11,682129
-7,9559326
-6,9488525
-1,8127441
-1,9134521
1,3092041
-1,8127441
12,387085
-1,0070801
0,50354004
3,7261963
-0,70495605
-0,30212402
2,0141602
-3,9276123
-1,7120361
-3,0212402
-3,1219482
-4,1290283
-0,10070801
-0,9063721
4,7332764
2,5177002
2,5177002
-2,9205322
-1,9134521
4,1290283
-7,7545166
-11,782837
-18,429565
-12,387085
-6,3446045
-6,4453125
-4,9346924
-1,9134521
-7,7545166
-6,0424805
-8,963013
-7,3516846
-3,8269043
-6,1431885
-2,7191162
2,1148682
-4,6325684
-5,4382324
1,1077881
-2,8198242
-9,970093
-2,4169922
2,1148682
1,6113281
4,2297363
8,056641
-2,3162842
0,70495605
1,0070801
-2,7191162
-7,5531006
-1,5106201
-7,7545166
-4,2297363
-5,5389404
-6,2438965
-1,1077881
1,2084961
-2,6184082
-10,977173
-12,286377
-5,6396484
-5,7403564
-13,293457
-1,9134521
-7,3516846
-8,963013
-0,10070801
-2,7191162
1,7120361
1,8127441
2,5177002
-1,5106201
3,9276123
5,6396484
-1,1077881
-2,3162842
1,3092041
-6,0424805
-0,10070801
7,5531006
-5,1361084
-0,9063721
0,40283203
-0,9063721
1,8127441
-1,9134521
-5,1361084
-1,9134521
-0,80566406
-6,7474365
-8,862305
0,30212402
-3,0212402
5,9417725
-1,5106201
-1,5106201
-1,0070801
0,50354004
-3,1219482
1,3092041
2,6184082
-4,1290283
-2,3162842
-4,4311523
-3,7261963
-8,258057
-9,164429
-5,3375244
-7,9559326
-16,314697
-16,012573
-16,818237
-23,26355
-27,996826
-28,097534
-16,616821
-8,258057
-7,2509766
-5,9417725
-4,0283203
4,3304443
-1,3092041
6,9488525
5,9417725
12,387085
5,9417725
1,4099121
8,459473
3,3233643
7,2509766
-4,2297363
-1,3092041
-0,30212402
-9,466553
-3,9276123
-8,358765
-12,286377
-12,991333
-7,5531006
-5,4382324
0,20141602
1,4099121
-0,80566406
6,9488525
1,2084961
5,9417725
-4,0283203
-1,5106201
3,3233643
2,1148682
-0,30212402
11,581421
3,0212402
3,8269043
5,5389404
-0,30212402
8,157349
3,6254883
4,8339844
16,616821
4,6325684
4,5318604
-0,60424805
1,7120361
5,3375244
-0,9063721
10,473633
4,4311523
1,1077881
-11,279297
-4,4311523
-6,9488525
-2,3162842
-0,30212402
5,6396484
-3,9276123
-4,3304443
-13,796997
-9,768677
-7,9559326
-10,977173
-12,387085
-7,5531006
-10,372925
-8,963013
-14,199829
-14,804077
-10,574341
-8,258057
-6,1431885
-6,1431885
-9,063721
-6,3446045
-7,0495605
-5,1361084
-0,30212402
-0,9063721
-5,8410645
-5,9417725
-4,3304443
-2,2155762
-11,480713
4,5318604
1,9134521
4,0283203
-3,0212402
-3,5247803
-1,3092041
-0,70495605
-1,9134521
-4,5318604
1,4099121
-5,2368164
-3,8269043
-1,3092041
-1,5106201
2,1148682
2,3162842
-3,0212402
-5,3375244
0,9063721
-3,5247803
-4,2297363
-9,567261
-2,5177002
-3,3233643
-3,5247803
-3,3233643
-4,6325684
-8,560181
-5,3375244
-1,9134521
4,7332764
-0,10070801
2,5177002
2,0141602
1,4099121
-0,50354004
-0,20141602
-0,80566406
1,1077881
0,10070801
5,9417725
2,6184082
2,5177002
2,7191162
-0,80566406
-3,1219482
-11,178589
-2,2155762
-9,667969
-5,3375244
-2,2155762
-3,4240723
-1,9134521
-3,3233643
2,9205322
-3,3233643
2,5177002
-7,3516846
1,1077881
-2,3162842
-7,8552246
1,8127441
-13,696289
-7,1502686
-9,970093
-4,7332764
-10,070801
-5,9417725
-0,30212402
0,10070801
-2,8198242
-6,9488525
-5,8410645
-3,7261963
-7,4523926
-5,8410645
-7,2509766
-2,3162842
-3,8269043
-2,8198242
-4,5318604
2,6184082
1,1077881
-2,4169922
-4,3304443
-6,4453125
-9,567261
-8,560181
-8,560181
-2,7191162
-6,7474365
-2,9205322
-3,7261963
-3,7261963
-5,6396484
-3,1219482
-3,2226562
-3,4240723
-1,1077881
4,3304443
0,70495605
-8,056641
3,3233643
4,6325684
-3,9276123
-3,1219482
-2,0141602
-3,9276123
2,8198242
1,5106201
-3,5247803
3,2226562
2,5177002
-0,20141602
4,5318604
-5,2368164
3,0212402
0,10070801
-7,3516846
-7,3516846
-9,265137
-3,0212402
-4,9346924
-13,394165
-2,7191162
-11,380005
-0,9063721
-2,3162842
-4,8339844
5,1361084
0,70495605
3,9276123
0,50354004
2,6184082
10,574341
13,293457
4,5318604
4,4311523
3,4240723
-1,6113281
-4,5318604
-2,3162842
-14,300537
-4,5318604
-5,6396484
-10,574341
-7,9559326
-23,464966
-13,394165
-12,185669
-7,9559326
-9,365845
-6,9488525
3,3233643
10,372925
10,070801
7,7545166
8,157349
8,157349
-0,9063721
-0,10070801
-3,9276123
0,50354004
0,60424805
0,10070801
4,5318604
-1,1077881
-5,2368164
-2,9205322
-6,3446045
-1,8127441
-5,1361084
-4,8339844
-7,7545166
-4,0283203
-2,7191162
-5,9417725
-1,2084961
-2,9205322
-8,761597
-9,265137
-16,314697
-15,408325
-17,72461
-19,436646
-19,23523
-22,76001
-18,328857
-23,062134
-18,73169
-14,904785
-5,7403564
4,5318604
9,768677
17,422485
18,328857
21,954346
24,572754
27,694702
22,659302
21,853638
19,638062
19,335938
12,991333
7,4523926
2,7191162
4,9346924
11,782837
0,20141602
4,5318604
-0,9063721
2,5177002
3,9276123
-5,4382324
2,5177002
-2,3162842
3,9276123
-2,7191162
2,1148682
-6,4453125
0,10070801
-7,9559326
-6,9488525
-5,7403564
-4,5318604
-9,567261
-6,8481445
-9,567261
-2,6184082
-10,574341
-3,4240723
-1,3092041
-3,7261963
-1,3092041
10,574341
-1,5106201
-4,1290283
-2,9205322
0
-2,1148682
-6,1431885
3,3233643
2,3162842
-2,1148682
-0,50354004
4,9346924
-5,8410645
1,2084961
7,0495605
1,0070801
-1,3092041
1,4099121
-2,0141602
-0,9063721
-2,5177002
-6,4453125
-2,8198242
-6,4453125
-4,1290283
-4,1290283
-5,5389404
-9,567261
-7,7545166
-3,7261963
-2,8198242
-5,2368164
-2,9205322
0,70495605
-7,7545166
2,1148682
5,5389404
1,8127441
-1,5106201
0,70495605
1,0070801
-4,3304443
1,4099121
0,70495605
-1,1077881
-2,5177002
-2,4169922
-1,1077881
-0,40283203
-2,5177002
7,0495605
-6,9488525
-2,5177002
-1,4099121
1,8127441
1,3092041
-2,1148682
-3,0212402
-6,3446045
-4,9346924
-2,4169922
-0,9063721
-9,063721
-7,9559326
-5,8410645
-8,157349
-9,869385
-6,9488525
-4,6325684
-9,365845
-8,660889
-2,1148682
