4,0283203
9,466553
5,1361084
6,4453125
9,466553
11,682129
15,005493
23,666382
25,378418
32,629395
36,053467
29,003906
29,406738
19,839478
17,22107
20,846558
21,652222
20,544434
18,530273
20,645142
25,881958
28,198242
19,436646
17,120361
18,026733
11,682129
13,192749
17,019653
31,32019
16,616821
22,961426
21,853638
16,616821
18,73169
11,782837
8,761597
8,157349
19,839478
18,429565
18,73169
18,328857
19,033813
12,487793
10,775757
14,099121
20,24231
10,473633
19,638062
14,804077
19,033813
31,118774
20,443726
19,033813
30,81665
26,889038
28,500366
32,42798
34,140015
32,629395
32,528687
23,364258
18,832397
18,429565
23,26355
17,22107
15,509033
16,415405
13,192749
13,897705
6,9488525
4,8339844
2,0141602
0,30212402
9,768677
7,8552246
8,157349
13,595581
15,811157
4,1290283
8,862305
11,480713
14,904785
10,372925
16,516113
11,782837
17,825317
17,623901
16,314697
18,832397
12,991333
6,5460205
5,9417725
6,8481445
4,0283203
10,272217
17,523193
22,055054
28,29895
23,062134
22,558594
16,918945
24,874878
19,436646
18,429565
19,436646
25,78125
20,645142
29,003906
18,026733
15,509033
29,708862
12,084961
15,307617
11,782837
14,501953
11,178589
13,796997
12,890625
14,501953
14,199829
11,984253
4,3304443
2,6184082
-1,5106201
-2,5177002
1,2084961
7,5531006
3,8269043
4,6325684
12,185669
10,675049
8,459473
12,084961
10,473633
11,782837
-1,4099121
-1,8127441
0
9,970093
15,911865
25,479126
21,24939
22,961426
18,22815
5,7403564
21,853638
30,413818
16,516113
10,272217
19,436646
17,120361
20,040894
10,977173
13,494873
6,9488525
13,092041
11,380005
5,9417725
8,761597
2,2155762
3,0212402
-0,10070801
9,365845
9,768677
8,862305
7,3516846
15,509033
25,177002
25,680542
21,853638
23,062134
12,689209
10,977173
10,171509
5,0354004
10,372925
20,040894
9,869385
11,380005
11,077881
11,984253
29,608154
18,328857
14,904785
14,300537
13,192749
9,164429
7,1502686
9,365845
14,804077
15,206909
17,926025
13,293457
2,9205322
6,1431885
15,911865
15,206909
9,164429
6,5460205
8,157349
5,1361084
-1,8127441
0,50354004
5,0354004
7,5531006
5,5389404
11,782837
14,401245
10,171509
2,9205322
3,6254883
8,157349
1,3092041
0
2,9205322
-2,9205322
0,50354004
5,2368164
13,696289
11,480713
14,199829
15,106201
11,984253
8,560181
11,782837
7,3516846
13,494873
10,272217
12,789917
10,171509
15,206909
8,358765
9,768677
0,20141602
-3,3233643
-0,50354004
-0,50354004
-1,3092041
2,7191162
-1,7120361
5,7403564
2,6184082
6,5460205
8,761597
10,070801
7,9559326
6,9488525
7,5531006
5,6396484
5,5389404
10,070801
13,092041
7,1502686
5,5389404
4,7332764
4,9346924
8,157349
0,80566406
-2,7191162
-6,5460205
-5,9417725
2,0141602
0,20141602
13,192749
6,9488525
5,5389404
2,9205322
5,2368164
5,4382324
10,574341
6,2438965
0,70495605
2,5177002
0,60424805
4,3304443
-3,9276123
-9,265137
-11,077881
-7,2509766
-0,9063721
-2,1148682
-0,10070801
-4,9346924
-4,8339844
-5,5389404
5,7403564
7,2509766
11,581421
15,811157
19,638062
19,335938
15,609741
12,487793
16,918945
10,675049
8,056641
3,9276123
3,9276123
8,459473
1,8127441
-5,2368164
-1,5106201
-8,761597
-14,804077
-5,5389404
-11,077881
-8,761597
-1,1077881
-6,0424805
-6,7474365
2,5177002
3,7261963
11,782837
8,459473
7,7545166
8,963013
9,970093
2,2155762
6,9488525
1,7120361
-1,9134521
-2,6184082
12,286377
12,991333
6,5460205
12,487793
11,682129
6,7474365
-0,30212402
4,1290283
0
1,1077881
-6,2438965
-6,5460205
-16,616821
-3,4240723
-1,4099121
2,7191162
11,782837
7,1502686
5,8410645
8,459473
12,588501
13,192749
7,3516846
4,6325684
8,963013
6,6467285
-1,1077881
-0,30212402
-1,8127441
8,056641
-0,10070801
1,7120361
0,70495605
-0,40283203
2,9205322
2,1148682
-0,9063721
9,265137
2,1148682
0,60424805
-3,3233643
0,40283203
11,279297
6,1431885
9,768677
8,761597
5,0354004
6,7474365
2,5177002
1,0070801
0,10070801
1,0070801
10,574341
8,157349
6,7474365
12,689209
5,3375244
4,9346924
8,963013
11,984253
2,8198242
11,782837
-1,1077881
0,80566406
-2,7191162
-6,2438965
-6,0424805
-6,9488525
-2,5177002
2,1148682
-2,9205322
0,70495605
-2,7191162
1,8127441
9,466553
8,459473
9,164429
3,6254883
8,862305
5,3375244
-3,5247803
2,1148682
-4,1290283
-1,5106201
-9,164429
-1,9134521
1,7120361
2,1148682
-0,60424805
-2,8198242
4,2297363
5,5389404
2,1148682
6,2438965
6,1431885
6,0424805
7,8552246
6,5460205
14,099121
0,10070801
6,2438965
12,487793
15,408325
9,667969
9,063721
3,4240723
0,30212402
4,8339844
0,9063721
-0,10070801
-2,9205322
3,5247803
1,1077881
0,10070801
-0,30212402
0,70495605
-1,6113281
1,0070801
0,10070801
12,991333
2,1148682
2,1148682
-0,30212402
-3,0212402
-6,3446045
-0,50354004
0,70495605
1,7120361
-0,10070801
-0,9063721
-3,5247803
-13,192749
-0,40283203
-2,2155762
0
-0,70495605
-9,063721
-4,3304443
-5,7403564
-0,60424805
-9,063721
-3,8269043
-3,9276123
-3,8269043
-9,365845
-0,20141602
4,3304443
8,761597
13,595581
10,775757
7,0495605
0,40283203
1,7120361
0,60424805
3,7261963
2,9205322
-0,70495605
3,6254883
3,5247803
-0,20141602
-3,7261963
-2,2155762
-0,50354004
0,20141602
3,5247803
6,5460205
1,8127441
-3,7261963
-0,10070801
-0,9063721
1,3092041
-0,9063721
3,2226562
0,9063721
-3,1219482
1,4099121
1,0070801
-1,1077881
-3,8269043
-1,5106201
-12,387085
-12,689209
-10,473633
-2,0141602
1,4099121
0,50354004
3,7261963
4,5318604
0,10070801
2,0141602
3,0212402
-3,8269043
-3,9276123
-7,4523926
-12,689209
-13,092041
-4,5318604
-12,185669
-4,2297363
-6,0424805
-6,9488525
1,9134521
-2,0141602
1,2084961
-0,10070801
-3,2226562
2,2155762
0,50354004
1,7120361
-4,3304443
-3,0212402
-0,70495605
4,5318604
7,5531006
5,4382324
2,5177002
2,9205322
1,1077881
5,9417725
0,70495605
-6,2438965
-2,5177002
-8,560181
-2,6184082
-2,9205322
3,2226562
5,0354004
-1,0070801
-5,1361084
-6,6467285
-14,602661
-9,365845
-17,623901
-21,450806
-15,710449
-10,272217
1,9134521
5,1361084
2,9205322
2,9205322
-1,3092041
-5,9417725
2,9205322
-0,9063721
-0,30212402
2,3162842
6,7474365
5,5389404
6,4453125
3,7261963
2,9205322
0,9063721
-0,9063721
-0,50354004
-3,9276123
-1,0070801
-2,5177002
0,80566406
0,70495605
8,660889
9,466553
19,638062
8,862305
7,9559326
1,1077881
-3,9276123
-3,1219482
2,7191162
3,8269043
0,10070801
-0,10070801
-1,0070801
2,7191162
0,9063721
3,2226562
-3,1219482
-1,3092041
5,4382324
3,8269043
-3,0212402
-3,3233643
-4,1290283
-1,4099121
-10,574341
-3,0212402
-2,1148682
-9,063721
-8,157349
5,5389404
-0,30212402
0,70495605
-10,876465
-3,8269043
2,2155762
-1,1077881
-1,4099121
-2,5177002
-9,265137
-5,2368164
-2,4169922
-4,2297363
-3,5247803
-1,6113281
-3,9276123
-5,3375244
-7,3516846
-5,2368164
1,8127441
8,560181
2,5177002
8,963013
12,890625
10,372925
3,4240723
0,80566406
-1,1077881
2,3162842
-6,8481445
-4,7332764
-3,5247803
-0,30212402
-4,7332764
-2,9205322
-1,5106201
-4,7332764
-9,667969
1,6113281
2,5177002
5,3375244
7,2509766
9,466553
0,20141602
2,5177002
-0,9063721
4,2297363
3,8269043
-0,70495605
-2,7191162
1,5106201
-0,9063721
1,9134521
10,574341
7,8552246
3,0212402
6,1431885
6,1431885
4,9346924
0,60424805
4,1290283
-0,9063721
-6,1431885
-6,7474365
-5,2368164
-5,1361084
-1,0070801
2,7191162
-0,20141602
2,8198242
-14,199829
-13,092041
-7,4523926
-13,595581
-10,372925
-16,314697
-13,796997
-17,321777
-20,645142
-18,127441
-8,358765
-7,9559326
5,3375244
7,1502686
11,984253
16,818237
14,501953
17,019653
12,487793
8,358765
5,3375244
3,7261963
5,6396484
0
-2,6184082
0,70495605
-5,1361084
-4,3304443
-5,2368164
-4,2297363
-1,6113281
-11,984253
-11,581421
-11,682129
-6,1431885
-7,2509766
-3,5247803
-2,2155762
5,4382324
18,22815
17,523193
24,27063
20,947266
16,818237
11,077881
10,675049
14,703369
6,4453125
5,7403564
-12,084961
-10,574341
-11,077881
-19,033813
-23,76709
-23,76709
-17,422485
-13,092041
-10,574341
-16,616821
-12,890625
-13,192749
-7,9559326
-2,5177002
-5,9417725
-2,7191162
-5,1361084
-4,8339844
-10,775757
-14,300537
-17,019653
-24,371338
-10,372925
-8,560181
-4,3304443
4,4311523
3,2226562
-2,3162842
-7,1502686
-12,185669
-9,164429
-15,307617
-13,595581
-22,558594
-19,73877
-23,364258
-11,782837
-4,4311523
11,682129
-11,480713
-1,1077881
-6,1431885
-0,9063721
9,970093
16,21399
8,358765
1,3092041
-10,876465
-6,2438965
-12,084961
-3,9276123
-7,1502686
-1,0070801
1,3092041
-1,3092041
3,4240723
-5,7403564
3,7261963
3,0212402
-1,2084961
1,7120361
-6,5460205
2,3162842
-6,3446045
-8,157349
-3,0212402
-5,3375244
-5,9417725
-2,9205322
-4,5318604
-7,6538086
-3,4240723
-4,9346924
-4,9346924
-5,9417725
-1,3092041
-1,5106201
-2,5177002
-5,0354004
1,9134521
4,9346924
-3,3233643
3,9276123
6,9488525
5,5389404
9,063721
6,9488525
4,3304443
2,7191162
7,5531006
0,80566406
1,4099121
3,7261963
-2,5177002
-3,3233643
6,4453125
-2,5177002
-1,1077881
-3,1219482
-0,80566406
-6,5460205
-5,8410645
-4,7332764
-9,164429
0,80566406
-6,1431885
-1,3092041
-4,7332764
-8,056641
-9,970093
0,70495605
3,0212402
-2,5177002
-11,682129
-4,1290283
2,5177002
-1,7120361
2,6184082
0,60424805
-0,70495605
1,1077881
1,0070801
-0,70495605
0,9063721
3,3233643
7,0495605
1,9134521
4,1290283
3,4240723
0,80566406
1,6113281
2,1148682
4,3304443
2,7191162
-0,9063721
-8,560181
-1,7120361
-1,1077881
0,80566406
-4,6325684
-6,1431885
0,10070801
-7,0495605
-6,0424805
-15,307617
-11,682129
-10,574341
-4,5318604
-7,5531006
-7,1502686
0,9063721
-2,6184082
-3,8269043
-5,1361084
-0,70495605
-1,1077881
-2,9205322
-0,60424805
-6,0424805
-4,6325684
-4,8339844
-2,7191162
11,984253
3,7261963
1,9134521
-1,3092041
1,7120361
0,50354004
1,2084961
4,0283203
6,0424805
3,6254883
1,8127441
-3,7261963
-4,4311523
-0,9063721
-1,2084961
-10,372925
-2,8198242
-3,4240723
1,6113281
-9,365845
-11,480713
-11,178589
-7,8552246
-4,7332764
-3,3233643
-4,7332764
-9,667969
-4,1290283
-4,7332764
-11,279297
-8,761597
-8,862305
-1,3092041
-8,358765
-6,3446045
-4,1290283
-3,1219482
-10,070801
-17,321777
-5,9417725
-6,7474365
0,60424805
8,963013
0,20141602
12,084961
7,3516846
3,3233643
1,9134521
-2,3162842
-7,5531006
-8,157349
-7,7545166
1,8127441
1,7120361
3,4240723
9,667969
8,761597
5,1361084
2,9205322
5,1361084
2,2155762
0,20141602
1,3092041
-3,2226562
2,4169922
-0,9063721
2,5177002
1,0070801
-5,3375244
-8,459473
-13,092041
-9,567261
-6,4453125
-2,2155762
5,6396484
3,1219482
7,9559326
-0,20141602
-4,3304443
0,10070801
-6,3446045
-0,60424805
-5,5389404
-3,1219482
-0,20141602
-4,6325684
-3,5247803
2,1148682
-7,7545166
0,9063721
-2,7191162
-4,1290283
-5,7403564
2,0141602
-0,10070801
0,50354004
-0,9063721
-3,6254883
-9,164429
-1,6113281
-2,9205322
-13,796997
-5,0354004
-14,804077
1,6113281
-5,1361084
-2,9205322
-5,7403564
0,70495605
-3,4240723
-1,0070801
-3,3233643
-0,10070801
4,2297363
2,1148682
4,0283203
1,7120361
4,6325684
5,5389404
-0,30212402
-7,0495605
-11,782837
-15,106201
-18,832397
-12,185669
-7,8552246
-0,10070801
-3,1219482
1,7120361
3,7261963
-0,20141602
-3,8269043
-5,7403564
1,1077881
1,4099121
-3,1219482
-7,3516846
-2,9205322
0,80566406
-2,5177002
-5,5389404
-12,286377
-7,7545166
-3,9276123
-0,40283203
-1,1077881
-0,70495605
-3,9276123
-6,7474365
-0,60424805
-0,50354004
3,3233643
-0,10070801
0,30212402
-1,9134521
20,24231
4,7332764
6,1431885
8,056641
1,3092041
-2,5177002
-3,1219482
-0,9063721
-1,6113281
-1,0070801
-3,2226562
-1,9134521
-0,10070801
-1,4099121
-4,4311523
-1,3092041
8,056641
-1,4099121
-5,7403564
-11,178589
5,4382324
-6,5460205
-1,4099121
-4,0283203
-2,8198242
5,1361084
-5,9417725
-6,1431885
-5,8410645
-3,1219482
-6,7474365
-5,1361084
1,7120361
-2,7191162
3,9276123
-4,1290283
-5,1361084
-0,50354004
1,8127441
-10,372925
-3,6254883
-4,6325684
-3,0212402
-8,660889
-4,5318604
1,4099121
6,1431885
2,2155762
5,0354004
7,2509766
8,358765
4,1290283
-4,9346924
-1,9134521
1,3092041
-2,4169922
-7,9559326
-7,1502686
-3,9276123
-7,7545166
-7,7545166
10,977173
-10,876465
-2,3162842
2,1148682
5,8410645
7,6538086
8,963013
0,60424805
-2,5177002
-1,3092041
0,70495605
10,876465
17,623901
9,567261
1,4099121
-13,092041
-11,984253
-14,099121
-18,832397
-10,272217
-16,21399
-21,551514
-21,047974
-16,918945
-33,132935
-24,77417
-26,28479
-22,558594
-9,365845
-3,5247803
1,6113281
-0,70495605
-2,3162842
-5,8410645
-5,2368164
-2,9205322
-6,2438965
-5,2368164
-5,3375244
-3,7261963
2,1148682
3,9276123
3,4240723
8,258057
5,3375244
1,9134521
5,2368164
0,9063721
-7,4523926
-4,7332764
-11,581421
-11,178589
-18,832397
-17,72461
-23,666382
-10,775757
-5,5389404
-2,5177002
-8,358765
-5,0354004
5,3375244
-9,164429
-9,667969
-16,21399
-10,171509
-11,480713
-10,775757
-3,5247803
-5,1361084
-7,1502686
-5,3375244
-3,7261963
-2,2155762
-2,3162842
-5,6396484
-9,466553
-10,473633
-12,084961
-17,120361
-12,185669
-11,581421
-4,7332764
-5,5389404
0,70495605
-6,4453125
-4,1290283
-9,567261
-9,970093
-0,30212402
-3,8269043
-9,164429
-11,984253
-8,761597
-11,984253
-12,689209
-11,782837
-16,616821
-16,21399
-7,0495605
-17,623901
-5,3375244
-4,7332764
3,3233643
1,9134521
-4,7332764
2,8198242
11,380005
6,2438965
7,6538086
-0,9063721
2,5177002
6,5460205
2,6184082
0,50354004
0,60424805
2,8198242
0
-0,9063721
-2,3162842
5,5389404
2,3162842
11,480713
3,0212402
2,0141602
4,2297363
-1,4099121
-5,1361084
-4,5318604
-3,2226562
-8,660889
-5,5389404
0,80566406
0,40283203
3,4240723
5,9417725
3,5247803
6,5460205
4,9346924
-0,10070801
-3,9276123
-4,3304443
-11,380005
-5,8410645
-14,401245
-5,7403564
-5,8410645
-1,3092041
3,6254883
9,466553
11,782837
-2,3162842
0,70495605
-0,10070801
1,3092041
-3,3233643
-7,5531006
2,9205322
3,3233643
0,9063721
5,0354004
-6,6467285
-2,3162842
-11,682129
-8,157349
-5,1361084
-11,380005
-3,8269043
-7,0495605
-9,970093
-12,286377
-7,4523926
-4,5318604
2,3162842
4,3304443
10,171509
3,5247803
-2,3162842
-11,682129
-11,984253
-16,818237
-13,494873
-12,286377
-6,8481445
-12,387085
-13,394165
-10,574341
3,7261963
8,963013
8,157349
6,3446045
0,60424805
-4,1290283
-3,0212402
-5,3375244
5,0354004
-2,8198242
8,157349
11,077881
10,675049
13,092041
9,466553
6,6467285
-0,70495605
-3,7261963
-8,560181
-3,7261963
-6,8481445
-6,7474365
-9,869385
-7,9559326
-7,3516846
-0,50354004
-2,3162842
-9,567261
-11,077881
-3,0212402
-6,2438965
-6,7474365
-3,9276123
1,5106201
-0,10070801
2,0141602
-10,070801
-3,2226562
-2,4169922
-5,9417725
-4,3304443
-0,70495605
-1,8127441
-1,1077881
6,9488525
-1,7120361
-1,1077881
-0,70495605
-2,6184082
4,7332764
-9,768677
0,50354004
0,10070801
-4,1290283
-0,30212402
1,8127441
-0,30212402
-7,5531006
-3,0212402
-2,4169922
2,5177002
-1,2084961
3,5247803
1,7120361
-2,5177002
5,1361084
-1,9134521
-6,7474365
-1,6113281
-6,9488525
-5,2368164
0,40283203
-5,1361084
-4,5318604
-3,6254883
-2,6184082
-5,5389404
-8,459473
-10,372925
-12,991333
-13,092041
-11,077881
-0,70495605
-12,487793
-3,0212402
-13,394165
-1,3092041
0,10070801
3,3233643
3,9276123
5,7403564
12,991333
0
0
1,9134521
11,279297
14,199829
11,380005
5,1361084
-1,9134521
-3,5247803
-0,60424805
4,2297363
-0,60424805
-2,7191162
-1,4099121
-10,372925
-17,019653
-8,258057
-8,358765
-11,077881
-1,5106201
-8,862305
-9,164429
-14,804077
-7,4523926
-8,459473
-8,862305
-1,3092041
1,8127441
7,1502686
3,3233643
2,0141602
-4,0283203
-1,5106201
-1,2084961
1,0070801
4,7332764
-0,9063721
-5,7403564
-8,157349
-8,761597
-7,5531006
-2,5177002
-11,984253
-2,2155762
-2,8198242
-2,9205322
-5,5389404
-3,7261963
-5,3375244
-1,7120361
4,0283203
2,3162842
3,9276123
1,7120361
10,977173
-3,9276123
8,459473
2,1148682
-4,3304443
-11,380005
-10,775757
-17,22107
-23,062134
-25,881958
-22,457886
-15,408325
-6,7474365
-6,4453125
-2,7191162
0,80566406
4,9346924
4,5318604
0,50354004
7,4523926
7,4523926
3,2226562
1,9134521
0,40283203
-4,0283203
-4,5318604
-1,0070801
-7,3516846
-8,157349
-3,1219482
-4,3304443
-9,365845
-6,8481445
1,3092041
-6,1431885
-10,675049
0,9063721
-1,7120361
6,8481445
3,2226562
-4,5318604
-1,9134521
5,3375244
5,1361084
4,9346924
-0,60424805
-6,0424805
4,6325684
2,2155762
5,9417725
-0,30212402
1,7120361
-1,6113281
-2,4169922
0,20141602
-0,30212402
-7,5531006
-2,7191162
1,6113281
-0,60424805
-2,6184082
1,1077881
10,473633
1,2084961
8,157349
-9,768677
0,30212402
-1,2084961
-1,7120361
-0,50354004
-3,4240723
-4,1290283
-8,157349
-5,7403564
-6,7474365
7,3516846
1,3092041
-3,7261963
-8,660889
-7,7545166
-8,761597
-6,1431885
-5,7403564
-2,3162842
10,675049
2,9205322
-4,3304443
-0,10070801
-1,3092041
2,1148682
5,8410645
5,5389404
2,5177002
4,4311523
2,7191162
-3,6254883
-2,7191162
-2,4169922
-2,0141602
-0,30212402
0,80566406
-4,5318604
-9,365845
-1,3092041
-1,9134521
2,6184082
-1,6113281
-6,0424805
-2,7191162
-1,5106201
-4,1290283
-2,5177002
-4,5318604
-6,3446045
-5,0354004
-9,265137
-14,401245
-10,171509
-11,077881
-6,5460205
-11,178589
5,4382324
-3,7261963
0,30212402
-10,775757
-9,365845
-10,070801
-7,3516846
1,3092041
0
0,9063721
-5,2368164
0,50354004
0,9063721
6,0424805
-5,8410645
7,1502686
4,4311523
11,782837
14,199829
7,5531006
7,4523926
3,0212402
7,5531006
-10,372925
-5,8410645
-5,4382324
-5,1361084
-6,2438965
-1,0070801
-3,9276123
-2,3162842
-1,2084961
3,3233643
10,876465
4,8339844
-3,5247803
-3,5247803
-2,5177002
-2,3162842
-9,265137
-12,789917
-16,818237
-16,818237
-13,998413
-8,660889
2,6184082
5,2368164
8,258057
10,171509
30,413818
14,602661
6,5460205
4,9346924
-0,10070801
7,0495605
5,0354004
2,3162842
-0,30212402
1,3092041
5,1361084
1,3092041
-2,0141602
-2,3162842
1,7120361
7,0495605
-10,775757
-3,2226562
-10,070801
-9,869385
-19,033813
-18,026733
-18,22815
-7,5531006
-11,480713
-9,970093
-4,1290283
-4,0283203
-0,40283203
-9,164429
-12,991333
-15,408325
-8,761597
-4,6325684
2,7191162
8,056641
4,0283203
9,063721
5,8410645
5,1361084
3,3233643
-0,50354004
3,3233643
-5,4382324
-2,1148682
-1,9134521
-0,20141602
-0,50354004
14,804077
7,7545166
-2,2155762
3,8269043
1,1077881
6,7474365
-8,157349
0,60424805
0,70495605
3,8269043
-9,970093
-1,9134521
-5,9417725
-1,5106201
0,40283203
6,9488525
-0,30212402
-3,6254883
2,9205322
3,2226562
-0,10070801
0,9063721
-4,8339844
-7,5531006
-7,3516846
-9,466553
-7,3516846
-10,977173
-10,272217
-11,782837
-10,775757
-8,862305
-9,466553
-6,6467285
-16,415405
-10,574341
-10,473633
8,660889
1,2084961
2,6184082
-5,3375244
-1,9134521
-1,1077881
-5,1361084
-3,5247803
-6,7474365
-1,4099121
0,60424805
8,157349
3,8269043
5,8410645
3,7261963
2,4169922
6,5460205
7,5531006
0,80566406
-3,6254883
0,70495605
-0,20141602
2,1148682
4,9346924
-0,10070801
-0,30212402
2,1148682
-0,9063721
-15,206909
-1,1077881
-8,761597
-10,675049
-5,3375244
-7,9559326
-7,7545166
-9,265137
-17,623901
-5,7403564
-4,0283203
0,20141602
-2,5177002
8,963013
7,8552246
11,581421
0,50354004
-0,70495605
-2,3162842
-10,876465
-7,7545166
-6,3446045
-7,3516846
-5,8410645
0,70495605
-0,50354004
-3,3233643
-1,9134521
-3,7261963
-1,0070801
2,3162842
2,5177002
6,2438965
-6,6467285
-6,7474365
-5,5389404
-2,4169922
-11,782837
-7,4523926
-9,063721
-12,185669
-11,077881
-11,581421
-5,5389404
-2,5177002
2,3162842
-3,1219482
-0,50354004
-8,862305
-6,6467285
-1,8127441
-14,804077
-7,3516846
-8,459473
-8,358765
-2,7191162
-6,9488525
-4,4311523
2,0141602
7,5531006
-2,2155762
-5,1361084
-5,9417725
2,8198242
-2,1148682
-7,6538086
-7,3516846
-7,0495605
-10,372925
-10,272217
-6,0424805
-3,2226562
-3,4240723
-9,567261
-4,1290283
-4,3304443
-2,8198242
-3,2226562
-5,7403564
-13,494873
-2,1148682
-8,358765
-8,258057
-7,1502686
-2,9205322
-7,3516846
-4,6325684
0
1,6113281
0
2,3162842
-0,10070801
-6,9488525
-7,5531006
-7,8552246
-7,1502686
-12,487793
-9,567261
-10,272217
-14,602661
-5,5389404
-4,6325684
9,768677
11,581421
1,8127441
-2,3162842
-4,1290283
-2,7191162
-1,1077881
2,5177002
-1,4099121
-0,9063721
-2,1148682
-2,2155762
-0,9063721
-5,4382324
-12,387085
-15,609741
-16,314697
-6,9488525
2,0141602
0,70495605
-4,1290283
-2,5177002
-0,70495605
-0,30212402
0,60424805
-7,6538086
0,9063721
5,9417725
3,8269043
3,7261963
4,3304443
4,2297363
1,7120361
2,7191162
-0,10070801
5,2368164
0,70495605
-1,0070801
-7,5531006
1,4099121
2,7191162
2,6184082
8,963013
-0,80566406
0,9063721
-6,1431885
-10,372925
-4,5318604
-12,084961
-12,789917
-7,8552246
-13,696289
-8,963013
-10,775757
-11,984253
-13,192749
-15,005493
-12,487793
-6,9488525
-9,869385
-8,761597
-5,9417725
-8,963013
-7,5531006
1,9134521
-4,1290283
-5,5389404
-6,8481445
-4,9346924
2,1148682
5,5389404
5,7403564
-1,0070801
0,60424805
-1,3092041
1,0070801
-5,3375244
-7,9559326
-6,2438965
-2,7191162
-5,3375244
-0,60424805
-0,80566406
-2,9205322
-1,2084961
-3,5247803
-8,761597
-7,7545166
-6,3446045
-0,40283203
-5,1361084
-8,761597
-4,1290283
-6,2438965
-6,7474365
-7,3516846
-9,567261
-6,5460205
-8,056641
11,380005
10,775757
20,74585
25,479126
25,579834
25,78125
15,106201
8,157349
4,5318604
-9,164429
-12,387085
-14,804077
-6,5460205
-7,1502686
-4,2297363
3,2226562
-0,20141602
7,7545166
2,7191162
0,9063721
6,4453125
0,20141602
3,3233643
-2,9205322
-1,0070801
1,2084961
1,6113281
7,5531006
7,2509766
3,2226562
7,2509766
-0,40283203
-4,4311523
-6,2438965
-10,070801
-9,466553
-10,775757
-4,5318604
1,3092041
-1,2084961
6,8481445
2,9205322
9,365845
4,9346924
9,768677
11,984253
8,761597
10,070801
0,70495605
2,2155762
0,50354004
0,50354004
1,7120361
-2,2155762
3,5247803
3,5247803
0,9063721
8,862305
-2,2155762
2,5177002
-8,358765
-2,3162842
-0,70495605
-1,5106201
-5,2368164
-4,9346924
-8,862305
-13,796997
-12,991333
-10,574341
-6,4453125
-8,560181
-3,6254883
-6,1431885
-6,1431885
-7,1502686
-7,3516846
-8,761597
-9,466553
-7,9559326
-12,185669
-6,0424805
4,6325684
-7,8552246
-13,696289
-12,084961
-13,595581
-21,551514
-13,394165
-9,466553
-9,164429
-6,8481445
-6,9488525
-3,5247803
-3,1219482
-4,8339844
0,9063721
-2,9205322
3,9276123
-7,3516846
-8,660889
1,5106201
-5,1361084
1,0070801
0,9063721
-3,7261963
2,0141602
1,3092041
-0,10070801
3,5247803
-0,70495605
5,3375244
-3,3233643
-0,70495605
-7,5531006
-10,775757
-11,178589
-5,7403564
-6,2438965
-5,9417725
-5,2368164
-2,8198242
-8,358765
-8,963013
-2,3162842
-4,0283203
-8,056641
-5,4382324
-11,178589
-4,3304443
-3,5247803
-4,3304443
-5,7403564
-2,6184082
4,5318604
1,7120361
-6,1431885
-19,73877
-9,567261
-7,4523926
-0,10070801
-11,480713
-5,9417725
-11,782837
-4,6325684
-2,7191162
-2,4169922
-13,192749
-6,3446045
-4,6325684
-16,113281
-10,574341
-9,567261
-6,6467285
-3,8269043
-2,5177002
-0,60424805
4,6325684
-0,50354004
-9,567261
-6,2438965
-2,0141602
-2,4169922
-6,3446045
-3,3233643
-13,696289
-10,171509
-12,387085
-10,675049
-8,862305
0,70495605
10,574341
4,5318604
8,157349
8,157349
10,977173
5,6396484
10,775757
12,487793
8,358765
10,070801
3,5247803
0,30212402
-0,40283203
6,9488525
-3,2226562
-3,5247803
-13,796997
-12,689209
-11,581421
-9,768677
-12,588501
-8,963013
-14,804077
-10,574341
-12,991333
-9,466553
-2,1148682
-1,4099121
5,6396484
3,0212402
0,9063721
-4,5318604
-8,358765
-5,2368164
-6,0424805
-9,970093
-11,178589
-10,775757
-7,9559326
-14,401245
-10,272217
-8,963013
-6,7474365
-2,0141602
-0,20141602
-1,5106201
5,1361084
13,494873
16,616821
17,22107
17,22107
19,033813
19,436646
14,199829
1,3092041
-7,6538086
-14,904785
-6,9488525
0,30212402
-4,8339844
-0,70495605
-5,5389404
-8,358765
-14,199829
-14,904785
-6,7474365
-4,7332764
-1,8127441
3,2226562
1,3092041
-6,9488525
-2,6184082
-6,3446045
-0,60424805
-2,7191162
-12,286377
-1,5106201
-3,7261963
-5,1361084
-5,7403564
-4,7332764
0,50354004
-3,8269043
1,1077881
2,7191162
2,9205322
6,4453125
5,2368164
0
1,7120361
2,6184082
0,70495605
-3,2226562
-6,6467285
-2,5177002
3,3233643
-3,0212402
-7,9559326
-4,9346924
-6,3446045
-3,9276123
1,0070801
0,30212402
5,1361084
-5,2368164
-5,3375244
-1,0070801
-4,3304443
-14,401245
-6,9488525
-13,092041
-13,192749
-1,5106201
0,50354004
9,164429
2,9205322
-4,4311523
-0,40283203
-4,4311523
-3,5247803
2,0141602
-2,1148682
-6,6467285
-5,7403564
-3,5247803
-3,8269043
-2,7191162
7,6538086
4,9346924
3,6254883
-2,4169922
-6,4453125
-5,2368164
-9,567261
-6,5460205
-2,0141602
-6,9488525
-4,7332764
-5,9417725
3,5247803
2,7191162
2,7191162
-7,0495605
7,5531006
0,60424805
-5,9417725
-4,4311523
-1,9134521
-3,0212402
-3,1219482
-6,8481445
-0,10070801
-8,560181
-12,387085
-8,358765
-4,7332764
-3,6254883
-7,8552246
-2,5177002
-4,3304443
-3,3233643
3,5247803
1,8127441
-7,2509766
-12,185669
1,7120361
-7,5531006
-6,8481445
-4,3304443
-0,40283203
1,8127441
11,782837
9,768677
-2,7191162
-3,0212402
-1,4099121
-4,1290283
-3,1219482
-10,675049
-1,9134521
1,9134521
3,7261963
5,4382324
3,4240723
-3,7261963
-0,30212402
0,30212402
6,7474365
8,157349
-0,70495605
-4,1290283
-0,9063721
0,30212402
0,10070801
2,3162842
-2,3162842
-5,4382324
-9,466553
-2,2155762
0,70495605
-2,0141602
-3,4240723
-2,1148682
2,7191162
-8,761597
-4,3304443
-8,056641
-4,6325684
-6,4453125
-11,178589
-5,6396484
-8,660889
-3,1219482
-5,7403564
-5,1361084
-10,775757
-3,4240723
3,6254883
-0,60424805
-0,20141602
0,20141602
2,9205322
-4,8339844
5,2368164
-3,0212402
6,7474365
-5,6396484
-3,6254883
-4,6325684
-0,9063721
5,1361084
3,0212402
6,9488525
8,157349
6,7474365
16,113281
-0,10070801
-1,9134521
4,2297363
-0,50354004
-11,581421
-15,408325
0,40283203
-5,9417725
-10,372925
-2,3162842
3,8269043
-1,2084961
-5,3375244
-3,3233643
-3,8269043
-1,0070801
-12,084961
-11,178589
-16,616821
-18,127441
-17,22107
-8,761597
0,10070801
-1,6113281
2,9205322
1,1077881
8,358765
-1,5106201
-0,10070801
-0,80566406
-0,50354004
-3,1219482
-7,5531006
-5,6396484
-0,80566406
4,5318604
14,300537
13,796997
3,5247803
2,9205322
-7,0495605
-8,761597
-8,358765
-12,789917
-14,099121
-0,40283203
-2,7191162
0,70495605
5,1361084
2,5177002
1,8127441
-0,50354004
-3,7261963
0,20141602
-0,80566406
0,50354004
-5,0354004
-3,1219482
-13,092041
-10,977173
-22,357178
-15,609741
-15,005493
-12,084961
-7,1502686
-3,1219482
-10,070801
-7,9559326
-4,1290283
0,10070801
2,3162842
7,1502686
10,775757
6,1431885
2,5177002
6,8481445
-6,4453125
-3,5247803
4,0283203
2,8198242
5,4382324
-0,70495605
-0,20141602
4,7332764
-2,6184082
-10,372925
-6,7474365
-13,494873
-5,2368164
-3,4240723
0,9063721
0,20141602
9,768677
-4,1290283
-0,60424805
0,20141602
-0,10070801
0,30212402
5,9417725
1,3092041
2,8198242
-0,80566406
2,3162842
-0,9063721
-2,9205322
-14,401245
-1,7120361
-6,7474365
-0,9063721
-0,9063721
3,6254883
3,0212402
-1,4099121
-2,1148682
-5,5389404
-17,22107
-8,459473
-4,5318604
-12,890625
-12,588501
-13,897705
-5,8410645
-6,4453125
-0,9063721
-2,4169922
2,1148682
0,50354004
-1,6113281
6,0424805
3,4240723
7,2509766
-5,7403564
-4,6325684
-9,869385
-8,056641
-6,9488525
-1,1077881
-2,5177002
-1,8127441
6,9488525
0,80566406
2,6184082
3,9276123
2,6184082
-3,2226562
-15,609741
-24,77417
-22,357178
-12,387085
-18,429565
-20,74585
-10,473633
-10,272217
-12,588501
-9,667969
-3,6254883
-8,660889
-19,839478
-22,055054
-17,22107
-6,3446045
4,5318604
10,977173
6,1431885
-6,0424805
-3,1219482
-1,4099121
1,3092041
0,50354004
-1,7120361
3,3233643
11,480713
6,4453125
6,4453125
3,9276123
-3,9276123
7,1502686
6,0424805
7,3516846
1,3092041
1,7120361
1,7120361
0,9063721
-0,70495605
-6,1431885
-3,7261963
1,3092041
-2,0141602
-3,2226562
-0,10070801
-3,9276123
-10,272217
-5,8410645
-8,056641
-12,789917
-12,286377
-7,5531006
-5,3375244
-2,3162842
1,0070801
-0,30212402
-0,10070801
0,20141602
4,8339844
0,60424805
6,9488525
-0,60424805
-1,6113281
3,8269043
1,9134521
-3,3233643
-3,5247803
-0,80566406
-8,761597
-11,380005
-13,998413
-10,574341
0,60424805
3,5247803
7,6538086
-0,60424805
-4,3304443
3,2226562
2,4169922
5,9417725
-0,10070801
-0,10070801
-0,9063721
0,9063721
-0,30212402
-0,10070801
-0,60424805
-4,3304443
-2,3162842
3,6254883
-7,0495605
0,50354004
1,7120361
5,3375244
5,3375244
-4,2297363
4,2297363
-6,2438965
-3,5247803
0,30212402
1,9134521
-7,1502686
-9,567261
-5,7403564
-6,5460205
-8,560181
-6,6467285
-0,10070801
-2,4169922
-13,595581
-11,581421
-8,258057
-7,1502686
-10,775757
-14,401245
-14,501953
-10,775757
-5,0354004
-13,998413
-15,710449
-11,178589
-6,1431885
-3,1219482
-4,1290283
-2,7191162
-0,30212402
-2,0141602
2,1148682
-8,761597
-13,796997
-9,164429
-5,7403564
-4,7332764
-2,9205322
-4,3304443
5,1361084
8,963013
8,157349
9,970093
10,977173
16,516113
0
4,6325684
14,199829
6,9488525
6,9488525
-3,2226562
-3,7261963
-5,3375244
0,40283203
-0,20141602
-1,5106201
-0,10070801
-0,10070801
-6,9488525
-5,5389404
-1,4099121
-3,8269043
-6,7474365
-5,7403564
4,3304443
3,3233643
-4,3304443
-0,10070801
0,10070801
-1,0070801
-4,2297363
-5,1361084
-0,60424805
-0,10070801
-2,4169922
0,10070801
-1,7120361
4,5318604
-5,5389404
-2,9205322
-4,3304443
3,8269043
-3,9276123
-6,7474365
-7,4523926
0,70495605
8,963013
7,5531006
6,5460205
2,6184082
3,7261963
0,80566406
-5,5389404
-1,5106201
-4,3304443
-3,5247803
-0,70495605
-4,4311523
-2,5177002
-3,1219482
1,2084961
2,4169922
0,70495605
1,6113281
-5,7403564
-6,5460205
-7,3516846
-9,970093
-10,574341
-9,466553
-4,9346924
-4,7332764
-13,696289
-8,761597
-7,2509766
-5,5389404
-6,7474365
-5,6396484
-7,3516846
-5,2368164
-9,567261
-6,1431885
2,6184082
-4,4311523
-7,3516846
-12,387085
-10,070801
-1,4099121
-1,4099121
-9,869385
-2,0141602
-5,5389404
-0,70495605
-7,9559326
-2,8198242
-7,3516846
-8,963013
-11,782837
-16,71753
-7,6538086
-10,473633
-4,8339844
-0,9063721
-3,1219482
-8,258057
7,6538086
12,588501
1,2084961
-2,2155762
-5,0354004
2,0141602
7,6538086
5,5389404
11,984253
7,6538086
15,509033
15,206909
13,998413
8,157349
-0,10070801
-5,1361084
-7,8552246
-7,1502686
-10,574341
-6,8481445
-5,7403564
-7,5531006
-3,4240723
0,40283203
-4,5318604
-3,5247803
-1,9134521
0,30212402
-0,70495605
-0,40283203
-3,4240723
0,10070801
-1,6113281
6,1431885
-4,1290283
-1,9134521
6,1431885
5,9417725
-2,5177002
-3,1219482
-4,1290283
-2,9205322
2,0141602
-1,3092041
-3,6254883
-2,9205322
-10,876465
-8,258057
-7,4523926
-7,2509766
0,70495605
-12,890625
-5,6396484
-4,9346924
-1,6113281
-5,2368164
-2,2155762
-2,1148682
-1,9134521
-1,2084961
-5,3375244
-8,157349
-5,9417725
-11,279297
-5,6396484
-8,761597
0,70495605
-1,9134521
0,20141602
-8,358765
-3,7261963
-5,5389404
0,30212402
-8,660889
-11,480713
-13,897705
-13,696289
-10,876465
-7,8552246
-21,24939
-18,933105
-18,832397
-12,588501
-12,991333
-4,1290283
-1,7120361
-8,157349
-2,3162842
-3,5247803
3,3233643
4,0283203
6,1431885
12,286377
7,3516846
5,2368164
8,258057
5,1361084
4,9346924
1,4099121
1,9134521
7,8552246
2,3162842
-4,7332764
-3,7261963
-2,1148682
-1,5106201
-4,7332764
0
-1,9134521
-2,7191162
-6,9488525
-2,5177002
-9,970093
-1,3092041
-8,761597
-7,0495605
-2,6184082
-2,3162842
-1,1077881
-0,50354004
-8,761597
-5,9417725
-2,0141602
5,8410645
7,2509766
7,6538086
6,2438965
3,7261963
3,3233643
8,459473
2,9205322
2,1148682
-0,60424805
-0,10070801
0,30212402
-0,9063721
1,0070801
-0,10070801
-2,2155762
0
-2,7191162
-5,7403564
1,7120361
4,6325684
3,9276123
3,3233643
2,3162842
2,3162842
4,1290283
2,7191162
12,689209
-0,30212402
2,5177002
1,7120361
11,480713
6,9488525
0,30212402
-3,7261963
2,2155762
-2,1148682
0,20141602
2,3162842
-1,1077881
-5,8410645
-8,963013
-8,761597
-8,258057
-4,0283203
-1,5106201
-7,5531006
-3,3233643
-4,5318604
-3,7261963
4,2297363
-3,9276123
2,5177002
2,3162842
0,40283203
1,9134521
-2,7191162
-5,3375244
-10,372925
-1,8127441
-2,9205322
-3,9276123
0,70495605
-1,9134521
-6,9488525
-5,2368164
-6,2438965
-2,3162842
-1,1077881
-5,8410645
-7,5531006
-11,480713
-3,0212402
-11,782837
-8,056641
-6,0424805
-8,862305
-5,1361084
-5,9417725
-4,7332764
-1,5106201
-0,60424805
-4,0283203
-5,1361084
-5,8410645
-11,581421
-8,157349
-10,372925
-4,1290283
-8,963013
-9,667969
-2,7191162
-11,984253
-12,588501
-11,279297
-2,3162842
2,1148682
1,6113281
-0,30212402
-0,70495605
-7,0495605
-1,5106201
6,1431885
-4,3304443
-3,1219482
2,8198242
1,1077881
-7,7545166
-8,560181
-7,5531006
-8,358765
-14,099121
-7,5531006
-7,9559326
-1,9134521
-11,380005
-4,1290283
-4,5318604
-7,1502686
-3,0212402
-3,0212402
-7,1502686
-8,963013
-5,1361084
-9,164429
-6,5460205
-6,0424805
-9,164429
-5,3375244
-3,0212402
-6,5460205
-1,6113281
-4,7332764
-6,8481445
-7,9559326
-4,2297363
0,9063721
3,7261963
5,5389404
0,20141602
1,1077881
1,1077881
4,0283203
-2,7191162
2,1148682
0,50354004
3,0212402
0,70495605
7,1502686
-6,6467285
-3,0212402
2,2155762
-3,9276123
-8,560181
-9,164429
-5,6396484
-2,0141602
-2,9205322
-3,1219482
-5,1361084
-6,7474365
-2,8198242
-10,775757
-8,459473
-1,4099121
-7,2509766
-2,7191162
-0,50354004
3,5247803
1,9134521
-3,9276123
3,7261963
-0,10070801
-3,1219482
3,7261963
-4,2297363
4,1290283
3,2226562
7,9559326
6,5460205
0,50354004
-2,7191162
-0,9063721
-0,80566406
-7,0495605
-7,1502686
-9,667969
-11,480713
-15,005493
6,8481445
-7,1502686
-0,60424805
-8,157349
-12,286377
-9,667969
-13,293457
-7,3516846
-7,9559326
-8,660889
-13,998413
-5,0354004
-6,0424805
-7,6538086
-3,1219482
-7,6538086
-6,7474365
-4,6325684
0,70495605
-0,70495605
2,4169922
5,9417725
-2,5177002
-13,394165
-16,415405
-16,012573
-10,775757
-5,0354004
-7,5531006
-13,696289
-9,667969
-2,3162842
4,5318604
-11,178589
-3,7261963
-6,1431885
-8,862305
-4,3304443
-2,5177002
-1,3092041
3,4240723
6,9488525
2,0141602
4,5318604
2,1148682
2,9205322
-6,0424805
-5,1361084
-4,7332764
-10,372925
-2,8198242
-6,8481445
-9,768677
-1,2084961
0,80566406
-1,1077881
2,1148682
-3,0212402
4,2297363
-3,5247803
-0,9063721
7,1502686
11,279297
14,703369
12,588501
8,963013
2,6184082
1,6113281
0,70495605
-3,3233643
-4,4311523
-7,5531006
-4,2297363
-4,0283203
-3,4240723
-0,20141602
-9,768677
-3,4240723
-3,4240723
1,0070801
-3,1219482
3,4240723
-1,8127441
3,9276123
-8,258057
-7,7545166
-3,5247803
-7,9559326
-8,358765
-8,963013
-9,970093
-6,9488525
-9,063721
-17,321777
-12,487793
-13,696289
-17,22107
-11,480713
-7,3516846
0,60424805
-2,0141602
1,1077881
2,3162842
1,8127441
-0,80566406
8,761597
13,092041
12,387085
4,9346924
7,3516846
2,1148682
-2,7191162
-6,7474365
-6,8481445
-6,5460205
-13,192749
-15,206909
-9,164429
-5,7403564
-2,3162842
-2,8198242
-3,1219482
-4,2297363
-1,9134521
-0,30212402
-3,6254883
-5,1361084
-6,6467285
-11,782837
-11,077881
-16,818237
-10,070801
-7,3516846
-2,3162842
-7,9559326
12,185669
5,3375244
11,380005
7,5531006
-0,30212402
-0,50354004
1,3092041
11,782837
13,192749
6,4453125
1,0070801
0,20141602
8,862305
-0,9063721
-0,60424805
-2,3162842
-0,30212402
-7,1502686
-1,9134521
-0,30212402
-5,1361084
-3,7261963
-3,9276123
-4,5318604
-3,7261963
-8,560181
-1,6113281
-0,10070801
6,6467285
13,897705
17,926025
13,092041
7,8552246
14,199829
7,5531006
12,185669
19,537354
7,3516846
5,9417725
-2,9205322
-6,0424805
-9,567261
-3,4240723
-8,358765
-10,675049
-17,120361
-19,23523
-15,408325
-12,588501
-19,839478
-15,911865
-6,9488525
-1,2084961
-11,380005
-1,9134521
3,4240723
-0,9063721
-1,4099121
-6,1431885
0
-8,660889
-10,272217
-6,7474365
-0,30212402
-6,1431885
-8,358765
-3,9276123
-9,164429
-5,8410645
-1,8127441
-0,70495605
-3,5247803
0,60424805
5,5389404
-2,5177002
-2,9205322
-1,3092041
-1,8127441
-3,1219482
-2,3162842
-4,7332764
5,5389404
-3,7261963
-4,1290283
-0,30212402
5,1361084
-2,3162842
-4,3304443
-6,8481445
-2,2155762
-0,40283203
-0,10070801
0,20141602
-0,70495605
-4,6325684
5,0354004
0,50354004
-6,1431885
-9,466553
-10,977173
-16,818237
-10,372925
-15,206909
-5,7403564
-1,3092041
-1,7120361
-0,30212402
2,1148682
-2,9205322
-1,6113281
0,50354004
-1,3092041
-2,2155762
-2,5177002
-1,3092041
2,2155762
1,9134521
-3,0212402
-5,0354004
-6,9488525
-9,869385
-14,804077
-20,443726
-6,1431885
-3,5247803
-7,8552246
-3,0212402
1,4099121
2,6184082
-3,3233643
-5,1361084
-3,0212402
0,40283203
-2,9205322
-4,3304443
-5,9417725
-3,9276123
2,2155762
2,9205322
12,890625
8,862305
1,5106201
-0,9063721
-3,0212402
-0,9063721
-4,7332764
-13,796997
1,4099121
-0,10070801
9,164429
0,70495605
-6,9488525
-3,2226562
-3,8269043
-1,4099121
-8,963013
-14,099121
-15,206909
-12,689209
-8,862305
-4,1290283
-4,9346924
-3,2226562
-1,3092041
-4,1290283
-13,796997
-16,71753
1,5106201
-0,9063721
-10,070801
-1,6113281
-8,862305
-3,8269043
-5,2368164
-15,609741
-7,7545166
-2,8198242
-5,2368164
-2,7191162
1,1077881
0,20141602
0,60424805
16,314697
16,516113
19,033813
19,033813
16,616821
5,2368164
0,10070801
-2,3162842
-2,8198242
-2,8198242
-1,5106201
-6,7474365
-1,3092041
-7,9559326
-3,3233643
-5,7403564
-3,2226562
-10,372925
0,10070801
-2,1148682
4,3304443
0,80566406
1,9134521
2,2155762
3,9276123
-4,2297363
-7,1502686
-2,2155762
0,30212402
2,3162842
0,20141602
4,3304443
1,7120361
-1,0070801
7,3516846
-2,7191162
-2,9205322
-7,0495605
-2,4169922
-12,588501
-18,22815
-5,7403564
-12,387085
-8,157349
-11,682129
-15,307617
-4,8339844
-5,0354004
-5,6396484
-7,2509766
-5,4382324
0,10070801
-6,3446045
-2,2155762
-10,473633
-3,2226562
0,10070801
-9,164429
-0,9063721
-6,2438965
-8,459473
-4,7332764
-4,9346924
-6,4453125
-3,8269043
-4,2297363
1,7120361
-1,0070801
-1,4099121
-3,9276123
5,4382324
-2,0141602
-0,30212402
4,4311523
-5,0354004
-4,6325684
-4,5318604
-7,1502686
-1,3092041
3,7261963
1,1077881
-3,1219482
-9,567261
-3,1219482
2,3162842
-1,0070801
-0,80566406
-4,5318604
-3,4240723
-6,1431885
-8,358765
-13,394165
-10,372925
-10,372925
-2,7191162
-10,272217
-6,0424805
-10,372925
-9,265137
-1,4099121
-5,3375244
-12,991333
-6,1431885
2,5177002
-9,667969
-0,50354004
-1,9134521
2,3162842
-1,2084961
4,5318604
5,7403564
1,9134521
-0,20141602
-1,4099121
5,6396484
0,9063721
4,3304443
1,4099121
14,099121
0,10070801
-7,8552246
-5,2368164
-4,0283203
-4,7332764
-6,9488525
-3,8269043
-3,1219482
1,3092041
-2,0141602
-2,7191162
-0,30212402
-6,3446045
-1,1077881
-3,8269043
-5,9417725
-1,9134521
-6,7474365
-5,3375244
-5,8410645
-7,9559326
-10,775757
-11,178589
-8,258057
-6,1431885
-0,10070801
-0,10070801
3,2226562
4,7332764
-2,8198242
-1,4099121
-7,0495605
-5,5389404
-8,056641
-4,4311523
-4,7332764
-2,5177002
3,7261963
6,1431885
3,3233643
0,40283203
2,7191162
-1,5106201
-0,60424805
-2,6184082
-3,2226562
-3,5247803
-3,6254883
1,4099121
2,2155762
-5,7403564
-8,358765
-6,1431885
3,9276123
-0,9063721
-1,0070801
-2,1148682
0,10070801
-0,40283203
-2,5177002
0,50354004
-2,4169922
-1,4099121
-0,10070801
1,8127441
-1,1077881
-3,4240723
2,2155762
-0,80566406
-0,30212402
-0,30212402
0,30212402
-1,7120361
-2,0141602
-1,7120361
-4,1290283
-11,782837
-7,5531006
-6,2438965
-2,3162842
0,20141602
19,033813
3,9276123
3,4240723
-3,4240723
2,4169922
-1,1077881
-1,5106201
-3,7261963
1,3092041
-3,8269043
0,20141602
5,6396484
3,3233643
0
3,3233643
-5,9417725
-2,4169922
-7,5531006
-6,7474365
-12,286377
-4,7332764
-0,9063721
11,380005
14,804077
13,796997
12,387085
10,272217
2,8198242
7,3516846
1,1077881
1,1077881
3,3233643
4,1290283
-6,7474365
-2,5177002
-8,358765
-0,9063721
-2,3162842
-5,5389404
-3,3233643
-3,1219482
-4,4311523
0,20141602
0,20141602
3,7261963
-4,7332764
2,9205322
3,9276123
-1,9134521
-0,50354004
-6,4453125
-9,164429
-8,560181
-9,970093
2,8198242
-2,0141602
-0,30212402
4,1290283
-3,7261963
-5,9417725
-3,4240723
1,3092041
-2,2155762
2,6184082
-8,258057
-3,9276123
-0,50354004
2,9205322
2,0141602
-1,0070801
-9,063721
-14,401245
-12,991333
-11,984253
-16,616821
-7,7545166
-4,3304443
-1,4099121
-3,3233643
2,3162842
-2,0141602
-5,3375244
-11,279297
-11,581421
-10,574341
4,2297363
-3,4240723
-9,869385
-9,265137
1,9134521
0,70495605
-1,0070801
-1,1077881
4,1290283
3,2226562
4,9346924
5,5389404
3,7261963
7,4523926
1,1077881
-3,5247803
-6,0424805
-10,876465
-10,473633
-7,0495605
-5,9417725
-5,5389404
-16,012573
-18,832397
-5,8410645
-7,6538086
-7,9559326
9,466553
10,574341
8,862305
12,689209
12,387085
12,588501
14,199829
7,6538086
2,3162842
5,5389404
4,8339844
5,0354004
0,10070801
-2,9205322
-1,5106201
-3,4240723
-7,1502686
-7,5531006
-6,0424805
-17,623901
-27,090454
-17,422485
-12,387085
-3,1219482
-6,4453125
-7,7545166
-9,466553
-1,1077881
3,1219482
-0,10070801
-1,1077881
0,20141602
3,5247803
0,30212402
-3,1219482
-6,5460205
-3,9276123
-2,5177002
-8,358765
-9,265137
-8,157349
-9,667969
-3,1219482
2,1148682
5,7403564
1,2084961
5,8410645
0,60424805
4,2297363
3,3233643
-2,6184082
-5,4382324
-5,9417725
-1,5106201
0,10070801
-8,963013
-12,789917
-11,077881
-10,070801
-10,272217
-6,0424805
-3,0212402
-2,5177002
-7,9559326
-16,21399
6,4453125
-3,8269043
-2,9205322
2,2155762
-1,2084961
-3,7261963
0,70495605
1,2084961
6,1431885
1,5106201
-3,0212402
-5,9417725
-11,077881
1,4099121
-6,3446045
0
0,30212402
6,1431885
0
-2,1148682
-5,7403564
-7,9559326
-1,3092041
-9,265137
-6,1431885
-15,408325
-8,358765
-8,862305
-6,7474365
-5,9417725
-1,9134521
-5,0354004
0,70495605
5,4382324
12,185669
9,164429
5,6396484
13,696289
7,4523926
8,358765
0,9063721
2,1148682
-3,0212402
-4,1290283
-3,1219482
-8,560181
-9,768677
-1,3092041
-0,20141602
-1,9134521
-4,7332764
-0,60424805
1,3092041
2,3162842
-0,20141602
3,3233643
1,9134521
-7,3516846
-5,5389404
-8,459473
-6,3446045
-11,077881
-5,7403564
-2,9205322
-7,3516846
-4,9346924
-3,4240723
-10,171509
-8,560181
-5,3375244
-8,761597
-7,9559326
-8,761597
-7,7545166
-12,084961
-8,761597
0,20141602
2,0141602
-0,60424805
2,8198242
1,8127441
-1,8127441
-6,9488525
-6,0424805
-5,3375244
-3,0212402
0,9063721
4,1290283
-0,20141602
9,466553
7,2509766
4,3304443
5,6396484
6,4453125
5,3375244
9,768677
14,804077
16,113281
11,380005
13,293457
12,084961
5,7403564
2,2155762
-0,50354004
-4,7332764
-6,7474365
-5,3375244
-9,869385
-2,2155762
-8,963013
-6,7474365
-12,689209
-9,063721
-7,3516846
-7,1502686
-6,3446045
-6,6467285
-3,4240723
-7,5531006
-7,3516846
-9,365845
-14,401245
-16,314697
-15,408325
-6,7474365
-8,358765
-6,7474365
-4,9346924
-7,5531006
-2,8198242
-4,7332764
-9,063721
-8,862305
-0,9063721
-5,5389404
-2,5177002
-4,1290283
1,7120361
0,30212402
-5,4382324
-3,9276123
-7,0495605
-5,7403564
-9,265137
-4,1290283
-2,5177002
-0,10070801
-1,9134521
2,4169922
2,6184082
1,0070801
2,5177002
0,80566406
-5,1361084
-0,40283203
-3,9276123
-5,4382324
-7,4523926
-9,063721
-4,4311523
7,7545166
7,9559326
-1,2084961
-5,0354004
-4,5318604
-4,2297363
-4,2297363
-7,3516846
-12,387085
-6,8481445
-6,1431885
-1,1077881
1,0070801
2,5177002
-1,9134521
0,50354004
0,40283203
3,2226562
-4,5318604
-2,8198242
4,3304443
7,1502686
7,4523926
10,473633
18,630981
18,22815
9,768677
3,2226562
2,9205322
3,7261963
21,148682
0,10070801
0,70495605
-0,50354004
-3,8269043
-12,387085
-17,019653
-24,371338
-20,040894
-16,818237
-3,7261963
-7,2509766
-11,883545
-8,761597
-13,494873
-5,5389404
-5,3375244
-2,8198242
2,6184082
-4,0283203
3,5247803
-6,9488525
-4,8339844
-3,1219482
-5,1361084
-2,3162842
-5,5389404
-6,9488525
-11,682129
-3,2226562
-2,9205322
-4,9346924
-5,4382324
-4,5318604
-5,6396484
-3,2226562
1,1077881
3,2226562
3,9276123
-2,4169922
-1,7120361
-7,5531006
-2,5177002
-8,258057
-13,998413
-12,185669
0,20141602
-1,8127441
-5,7403564
-6,7474365
-12,084961
-15,307617
1,3092041
-3,4240723
-2,5177002
-3,2226562
-5,5389404
-5,9417725
-7,6538086
-5,6396484
-4,4311523
-3,2226562
-0,10070801
2,7191162
11,581421
10,372925
7,1502686
9,768677
0,30212402
-6,4453125
-5,8410645
-10,372925
-0,9063721
4,3304443
10,171509
-1,1077881
-12,286377
-10,574341
-10,775757
-9,567261
-0,10070801
-7,5531006
-5,1361084
0,30212402
3,4240723
0
3,4240723
-5,1361084
-7,1502686
-3,1219482
-2,1148682
1,0070801
-3,8269043
-6,2438965
-4,1290283
-7,4523926
4,3304443
2,8198242
4,5318604
-2,1148682
-8,761597
2,2155762
-4,7332764
0
5,5389404
-1,5106201
0,50354004
-3,0212402
-0,70495605
3,3233643
-0,9063721
0,9063721
-1,3092041
-2,3162842
-7,1502686
-4,5318604
-12,084961
-5,6396484
-5,7403564
-6,0424805
-5,8410645
-2,7191162
-3,3233643
-7,3516846
-10,574341
-10,272217
-9,970093
-0,10070801
-6,0424805
1,8127441
-8,157349
0,10070801
-5,8410645
-12,689209
-8,761597
-14,401245
-16,415405
-10,372925
-3,7261963
-2,3162842
1,6113281
-4,5318604
-7,7545166
-3,9276123
-6,0424805
-8,963013
-9,567261
-15,710449
-8,358765
-12,588501
-6,8481445
-3,3233643
-2,7191162
-1,6113281
-3,3233643
-8,660889
3,8269043
-0,50354004
4,3304443
7,3516846
19,033813
17,72461
10,876465
0,80566406
-6,8481445
0,50354004
-2,9205322
-8,660889
-8,660889
-17,22107
-16,516113
-18,328857
-23,062134
-0,10070801
-6,4453125
-3,1219482
-2,4169922
2,5177002
4,2297363
6,8481445
0,50354004
-6,7474365
-6,9488525
-4,8339844
-6,7474365
-5,1361084
1,6113281
-3,7261963
0,50354004
-3,3233643
2,3162842
-4,8339844
-6,5460205
-1,2084961
0,9063721
2,0141602
1,1077881
-2,2155762
-2,3162842
-3,9276123
-2,2155762
-6,7474365
-6,2438965
-9,365845
-13,897705
-9,567261
-1,1077881
-1,7120361
-4,9346924
-13,897705
-14,300537
-11,178589
-18,026733
-3,8269043
-2,6184082
0,10070801
-7,2509766
-5,5389404
-9,768677
-10,372925
-9,869385
-4,4311523
-1,0070801
-10,775757
-4,1290283
-3,5247803
3,3233643
3,9276123
1,2084961
-2,1148682
0,60424805
-0,70495605
-7,0495605
4,4311523
-7,3516846
-5,9417725
1,2084961
-5,4382324
5,7403564
4,5318604
-1,0070801
3,7261963
-0,50354004
0,50354004
-8,358765
-6,8481445
-10,171509
-12,185669
-8,660889
-7,3516846
-0,30212402
3,5247803
2,2155762
2,1148682
-1,7120361
-7,1502686
-7,2509766
-8,660889
-5,5389404
-9,466553
-5,3375244
-6,1431885
-1,6113281
-5,7403564
-3,5247803
2,9205322
1,8127441
3,8269043
-5,1361084
3,9276123
-1,7120361
-1,3092041
-1,7120361
3,3233643
-0,60424805
-2,3162842
1,1077881
-5,1361084
-0,9063721
0,40283203
-1,9134521
-4,5318604
-3,2226562
-6,2438965
-8,459473
-2,8198242
-3,4240723
-9,365845
-4,1290283
-4,9346924
0,20141602
-7,0495605
-11,077881
-8,660889
-14,300537
-14,804077
-7,9559326
-7,9559326
-11,984253
-8,056641
-0,9063721
0,10070801
-0,50354004
-4,6325684
-2,2155762
-3,0212402
-1,1077881
-4,4311523
1,7120361
7,1502686
4,5318604
-0,70495605
3,5247803
4,4311523
-3,6254883
-15,206909
-5,3375244
-0,10070801
0,20141602
-3,7261963
-4,3304443
0,70495605
-0,9063721
-0,50354004
-1,8127441
-1,6113281
-1,9134521
-2,2155762
-7,8552246
-16,415405
-10,574341
-13,998413
-18,026733
-17,523193
-11,782837
-5,7403564
-14,804077
-11,480713
-3,2226562
-1,9134521
-1,1077881
-3,9276123
-10,675049
-5,2368164
-2,5177002
-7,1502686
-5,2368164
-2,7191162
-0,50354004
-0,80566406
0,70495605
12,890625
2,5177002
-3,1219482
-5,6396484
-8,660889
0,10070801
-5,2368164
3,7261963
3,4240723
3,5247803
-0,10070801
0,40283203
0,60424805
0,70495605
-8,963013
-8,056641
12,387085
-0,30212402
-12,890625
-22,860718
-19,134521
-16,012573
-19,537354
-23,666382
-9,567261
-11,380005
-5,9417725
-1,8127441
1,4099121
2,4169922
-2,5177002
0,60424805
-0,70495605
0,10070801
12,588501
17,22107
15,005493
12,387085
10,372925
8,056641
10,372925
10,574341
3,9276123
11,077881
18,630981
11,581421
19,73877
17,422485
23,968506
27,694702
30,31311
19,940186
14,199829
5,9417725
-2,8198242
0,40283203
-10,675049
-7,4523926
-11,279297
-18,026733
-17,623901
-2,4169922
-7,4523926
-3,5247803
-1,1077881
0,30212402
-3,9276123
-8,459473
-11,581421
-6,9488525
-8,862305
-4,9346924
-0,9063721
0,40283203
-4,7332764
-5,9417725
-13,796997
-12,286377
-12,185669
-12,789917
-8,963013
-7,0495605
-0,9063721
-1,7120361
-11,984253
-9,567261
-1,8127441
0,20141602
-2,3162842
-9,869385
-0,60424805
-1,8127441
-6,3446045
-2,3162842
2,9205322
5,0354004
-0,80566406
-4,5318604
2,9205322
-2,8198242
-3,1219482
-2,9205322
-2,5177002
2,1148682
8,258057
7,4523926
0,50354004
4,2297363
7,9559326
2,3162842
14,804077
8,157349
0,30212402
-2,1148682
-9,567261
-7,8552246
-2,0141602
-3,0212402
-4,1290283
-0,50354004
-1,2084961
6,4453125
1,7120361
0,30212402
2,5177002
3,0212402
-2,7191162
-5,9417725
-5,6396484
-11,883545
-8,660889
-7,8552246
-8,560181
-4,8339844
5,4382324
-2,3162842
0,80566406
-2,9205322
-6,7474365
1,2084961
-3,9276123
-8,056641
-2,8198242
1,2084961
-1,0070801
0,60424805
-0,20141602
-3,2226562
-3,2226562
1,1077881
-2,9205322
-4,8339844
3,8269043
8,358765
7,4523926
-2,0141602
11,984253
15,509033
12,084961
7,3516846
0,20141602
-7,9559326
7,3516846
-13,595581
-21,047974
-27,090454
-24,975586
-19,335938
-10,171509
-10,372925
-13,394165
-9,365845
-1,5106201
0
2,1148682
3,3233643
-1,9134521
0,70495605
-5,5389404
-2,9205322
-1,3092041
-8,258057
-10,977173
-1,5106201
4,9346924
-2,7191162
0,70495605
2,9205322
1,9134521
-4,1290283
-9,265137
-4,9346924
-10,272217
2,9205322
-0,20141602
2,7191162
-0,60424805
4,0283203
5,7403564
4,5318604
-0,50354004
-2,5177002
-1,5106201
-3,0212402
-4,0283203
-5,6396484
-0,70495605
-0,50354004
-1,8127441
-3,9276123
-0,80566406
0,30212402
-6,9488525
-3,7261963
-6,2438965
-2,7191162
-4,3304443
-5,5389404
-9,063721
-0,10070801
1,9134521
-2,3162842
-0,20141602
-8,258057
-4,1290283
-7,2509766
-5,4382324
-4,0283203
-2,7191162
-5,6396484
-2,7191162
-0,9063721
-1,4099121
-2,0141602
-0,9063721
0
0,70495605
2,1148682
-2,4169922
-5,1361084
-7,3516846
4,5318604
-0,9063721
0,30212402
-1,5106201
-4,7332764
-8,560181
-10,876465
-9,970093
-1,8127441
-5,0354004
-5,5389404
-12,991333
-14,804077
-7,1502686
-3,5247803
-5,3375244
-9,869385
-0,80566406
2,4169922
-7,8552246
-10,775757
-10,473633
-4,3304443
-2,7191162
-5,2368164
-3,0212402
-3,4240723
1,3092041
0,60424805
0,80566406
2,3162842
5,8410645
3,8269043
-0,30212402
0,10070801
-5,9417725
-5,2368164
-3,2226562
-10,372925
-1,7120361
-4,4311523
-5,5389404
-1,9134521
-1,5106201
-1,3092041
3,4240723
-2,9205322
-10,775757
-10,775757
-5,9417725
-8,761597
-19,134521
-12,387085
-8,660889
-4,4311523
-0,60424805
-6,7474365
-0,30212402
-5,6396484
-6,2438965
-2,6184082
-2,1148682
-5,4382324
-6,1431885
-8,560181
-8,761597
-6,1431885
0,70495605
-0,20141602
-1,8127441
-7,2509766
-7,3516846
-3,9276123
11,581421
7,4523926
2,5177002
0,70495605
0,70495605
3,5247803
-0,10070801
-0,50354004
-2,7191162
6,2438965
-3,0212402
-7,8552246
-3,5247803
-7,1502686
-7,5531006
-12,789917
-12,084961
-5,9417725
-7,1502686
8,157349
-0,40283203
-5,3375244
-9,164429
14,199829
-2,1148682
-2,5177002
10,272217
2,6184082
-0,50354004
3,9276123
2,3162842
0,80566406
-0,50354004
-2,4169922
-5,3375244
-6,7474365
-14,300537
-15,005493
-11,782837
-10,876465
-14,904785
-4,5318604
-2,4169922
-0,20141602
4,2297363
-6,3446045
1,1077881
0,20141602
13,696289
8,056641
5,8410645
7,1502686
0,30212402
-3,8269043
-4,1290283
-3,5247803
14,501953
8,560181
-0,70495605
3,7261963
13,293457
10,775757
9,970093
10,372925
4,6325684
0,20141602
-3,2226562
-6,1431885
-5,9417725
-14,300537
-17,22107
-10,977173
-11,178589
-10,574341
0,30212402
0,30212402
-1,2084961
4,2297363
7,4523926
5,1361084
-4,7332764
-5,5389404
-10,977173
-7,4523926
-8,258057
-6,3446045
-2,7191162
2,3162842
-1,3092041
4,3304443
-4,5318604
-13,394165
-16,113281
-17,019653
-11,380005
-14,804077
-15,005493
-9,567261
-6,9488525
-4,1290283
1,4099121
4,1290283
6,7474365
5,8410645
12,387085
4,3304443
2,5177002
-2,8198242
-2,0141602
-3,9276123
-2,7191162
-3,5247803
0,40283203
-0,40283203
6,1431885
-3,0212402
-5,7403564
-9,365845
-1,5106201
-0,30212402
-1,5106201
0,70495605
-0,70495605
-4,7332764
-8,459473
-9,365845
0,70495605
2,5177002
-0,9063721
-6,7474365
5,1361084
2,5177002
3,5247803
-0,9063721
9,063721
8,258057
4,8339844
8,459473
10,372925
9,768677
7,1502686
4,3304443
10,473633
12,487793
2,5177002
-5,1361084
-8,358765
-12,991333
-12,084961
-15,609741
-15,609741
-9,567261
-10,473633
-7,0495605
-4,8339844
-7,1502686
-8,761597
-5,1361084
-13,394165
-6,8481445
-2,3162842
-5,9417725
2,8198242
-2,3162842
-1,9134521
1,9134521
3,7261963
-1,7120361
-4,0283203
3,5247803
4,9346924
-5,6396484
3,6254883
-7,7545166
1,0070801
-2,4169922
0,40283203
-1,6113281
0,30212402
-11,984253
2,3162842
-2,4169922
-0,10070801
-3,0212402
2,3162842
2,4169922
2,7191162
-2,7191162
-0,10070801
-2,3162842
0,10070801
2,9205322
3,4240723
7,5531006
2,3162842
-4,5318604
0,50354004
3,5247803
1,0070801
-2,0141602
-7,3516846
3,0212402
9,869385
3,5247803
-2,5177002
1,4099121
-3,6254883
-6,6467285
-2,9205322
-6,5460205
-8,459473
-8,056641
-8,056641
-4,8339844
-5,0354004
-4,7332764
-5,9417725
-7,3516846
-5,0354004
-6,8481445
-4,4311523
-9,466553
-5,6396484
-7,9559326
-3,9276123
-12,689209
-11,178589
-9,063721
-6,7474365
-7,1502686
-0,9063721
6,9488525
7,3516846
6,7474365
9,768677
4,6325684
4,2297363
-2,7191162
3,4240723
2,3162842
3,9276123
-0,70495605
-5,0354004
-7,5531006
-12,789917
-10,876465
-4,2297363
-3,9276123
-9,063721
-5,6396484
-0,40283203
1,9134521
2,5177002
4,0283203
0,30212402
6,1431885
-2,2155762
0,70495605
-3,1219482
-7,7545166
-10,171509
-6,2438965
-2,8198242
-4,7332764
-7,5531006
-12,185669
-16,415405
11,480713
74,42322
149,14856
171,80786
178,5553
172,61353
154,98962
132,83386
113,59863
102,72217
96,67969
80,26428
51,864624
77,041626
106,8512
117,92908
113,1958
94,06128
88,52234
76,94092
70,09277
51,663208
49,749756
31,521606
19,73877
-2,5177002
-35,147095
-52,468872
-58,309937
-38,571167
-8,660889
14,904785
23,26355
5,9417725
-7,5531006
-28,701782
-43,807983
-64,25171
-75,531006
-96,37756
-112,490845
-107,85828
-98,39172
-104,13208
-115,91492
-123,46802
-119,74182
-118,13049
-120,34607
-129,81262
-134,24377
-128,40271
-124,4751
-113,69934
-103,829956
-100,6073
-93,759155
-85,90393
-80,06287
-69,08569
-71,20056
-58,309937
-52,871704
-45,721436
-45,318604
-41,088867
-45,52002
-32,93152
-33,636475
-40,081787
-44,41223
-30,715942
-23,867798
-18,026733
-17,422485
-19,033813
-13,092041
-7,0495605
1,6113281
9,869385
9,768677
0,9063721
4,4311523
4,6325684
7,5531006
7,1502686
11,581421
12,689209
17,623901
11,380005
13,192749
9,164429
5,7403564
2,2155762
-2,7191162
-0,10070801
-4,1290283
-8,862305
-9,466553
-14,804077
-9,164429
-8,761597
-10,272217
-8,258057
-7,8552246
-11,480713
-11,581421
-12,991333
0,10070801
-1,7120361
0,10070801
-0,80566406
2,5177002
0,9063721
6,1431885
0,9063721
5,2368164
9,768677
-7,2509766
5,8410645
-0,9063721
3,4240723
9,466553
8,358765
2,1148682
6,6467285
7,0495605
8,157349
4,9346924
6,7474365
4,3304443
3,7261963
3,9276123
-1,1077881
6,5460205
6,7474365
4,7332764
8,963013
7,1502686
14,602661
12,487793
3,7261963
-6,6467285
-11,077881
-9,567261
-11,984253
-12,185669
-19,839478
-23,26355
-21,954346
-15,307617
-14,199829
-17,623901
-15,509033
-6,1431885
3,3233643
8,963013
7,1502686
9,970093
5,8410645
5,8410645
7,3516846
4,4311523
-4,7332764
-9,567261
-1,2084961
-0,9063721
6,8481445
3,7261963
0,20141602
-3,0212402
0,10070801
0,80566406
-1,9134521
-3,1219482
13,192749
4,5318604
-1,5106201
-0,30212402
3,6254883
-4,3304443
-7,5531006
-5,2368164
2,6184082
5,4382324
11,984253
13,595581
8,056641
6,4453125
-2,5177002
-3,0212402
-4,3304443
0,50354004
0,9063721
1,7120361
2,1148682
-5,1361084
-4,7332764
-6,7474365
-3,9276123
-8,358765
-15,106201
-2,6184082
-1,7120361
0,20141602
-0,60424805
-2,5177002
-1,8127441
-3,9276123
-0,50354004
4,5318604
-7,0495605
-5,1361084
-2,8198242
-3,0212402
-1,4099121
4,5318604
8,660889
13,192749
13,293457
5,7403564
5,3375244
7,7545166
6,5460205
11,682129
-0,20141602
3,9276123
6,5460205
3,5247803
-3,1219482
0,20141602
-1,1077881
1,6113281
1,3092041
6,7474365
-3,9276123
1,7120361
-11,682129
-7,0495605
-14,401245
-1,4099121
-12,185669
-7,8552246
-9,567261
0,40283203
-3,6254883
-0,10070801
5,6396484
-12,185669
-44,41223
-72,81189
-73,21472
-11,178589
30,31311
37,564087
13,192749
12,991333
21,047974
69,79065
144,11316
176,54114
178,95813
149,04785
81,87561
23,666382
64,85596
126,18713
135,45227
70,19348
34,542847
212,39319
520,3583
632,04346
600,32043
545,636
431,93665
329,01306
318,84155
419,14673
552,2827
608,17566
623,9868
560,13794
435,66284
331,43005
265,4663
213,50098
216,11938
153,98254
19,23523
-95,67261
-233,54187
-329,21448
-453,68958
-570,41016
-623,28186
-567,69104
-475,03967
-208,26416
120,44678
353,2837
412,3993
439,28833
400,91858
366,27502
324,2798
323,0713
304,94385
258,31604
252,57568
267,6819
439,9933
523,68164
438,8855
321,15784
155,19104
-41,39099
-320,15076
-418,03894
-507,87048
-553,79333
-575,9491
-636,2732
-748,76404
-741,41235
-590,7532
-395,37964
-261,33728
-257,61108
-298,80066
-428,10974
-607,7728
-680,88684
-603,9459
-416,83044
-281,781
-302,12402
-356,40564
-495,4834
-452,27966
-116,31775
124,97864
159,7229
123,16589
26,78833
-80,96924
-146,12732
-171,40503
-142,50183
-51,05896
73,31543
233,34045
405,85327
526,50146
414,11133
218,03284
52,267456
-73,41614
-180,77087
-271,6095
-255,49622
-87,61597
165,9668
316,72668
261,23657
125,079346
3,6254883
-82,78198
-154,6875
-207,35779
-245,82825
-268,9911
-286,41357
-303,33252
-306,15234
-304,84314
-289,83765
-287,72278
-335,05554
-309,375
-194,87
-151,96838
-170,80078
-189,12964
-199,40186
-201,61743
-173,31848
-164,85901
-144,81812
-92,95349
-47,03064
28,198242
98,794556
118,2312
128,302
134,6466
166,47034
193,46008
209,17053
256,90613
296,58508
308,46863
296,6858
261,7401
205,74646
129,20837
55,993652
-5,3375244
-67,977905
-128,70483
-194,46716
-285,80933
-329,6173
-324,5819
-319,5465
-249,0509
-101,815796
-66,970825
-75,83313
-0,30212402
91,04004
108,86536
79,86145
54,281616
43,00232
47,53418
77,74658
127,093506
245,82825
328,00598
299,10278
175,73547
85,90393
111,78589
178,15247
256,90613
316,52527
348,349
317,73376
267,07764
96,8811
-114,60571
-255,69763
-351,0681
-403,8391
-447,8485
-449,45984
-555,30396
-725,2991
-905,365
-948,87085
-858,9386
-794,28406
-762,1582
-696,7987
-515,12146
-236,76453
114,70642
418,44177
604,8523
661,853
644,0277
684,91516
830,2368
997,81494
1091,1713
993,7866
722,47925
494,97986
435,1593
488,43384
441,90674
355,19714
112,994385
-199,70398
-451,6754
-559,6344
-730,7373
-898,3154
-744,2322
-403,8391
-118,63403
39,98108
133,13599
437,87842
617,7429
700,4242
755,10864
773,1354
875,6561
1008,6914
1005,56946
891,06445
777,1637
607,7728
361,54175
72,9126
-459,42993
-1174,1547
-1604,5807
-1559,0607
-1492,392
-1604,1779
-1729,0558
-1665,509
-1497,4274
-1343,9484
-1134,8785
-831,3446
-557,62024
-354,29077
-35,95276
383,3954
756,41785
1161,969
1504,0741
1694,4122
1710,9283
1632,074
1486,0474
1330,6549
1105,1697
778,97644
489,1388
241,59851
7,1502686
-138,07068
-249,95728
-289,93835
-286,8164
-266,4734
-252,67639
-205,64575
-137,66785
-120,14465
-117,12341
-131,82678
-157,2052
-193,7622
-206,35071
-201,3153
-189,73389
-186,30981
-184,39636
-180,46875
-166,67175
-164,25476
-154,98962
-146,53015
-135,25085
-129,91333
-123,87085
-119,540405
-112,69226
-99,801636
-82,27844
-77,041626
-74,12109
-72,61047
-66,970825
-63,949585
-56,5979
-35,247803
-23,565674
-10,171509
-16,314697
-35,95276
-63,949585
-80,26428
-83,58765
-84,99756
-75,027466
-69,58923
-75,631714
-73,31543
-83,48694
-94,56482
-88,52234
-70,69702
-56,900024
-46,829224
-42,39807
-43,203735
-41,088867
-45,52002
-46,124268
-44,311523
-32,730103
-37,36267
-26,385498
-24,874878
-27,896118
-23,666382
-21,24939
-14,804077
-20,443726
-15,609741
-17,019653
-19,335938
-16,314697
-5,5389404
-10,876465
-12,588501
-14,401245
-20,040894
-17,120361
-16,012573
-15,307617
-6,7474365
7,5531006
27,493286
13,494873
-2,9205322
-13,595581
-13,192749
-1,5106201
-2,9205322
-7,2509766
-8,358765
0
-3,9276123
5,3375244
0,9063721
-0,10070801
3,9276123
2,7191162
9,768677
-0,9063721
-1,6113281
1,5106201
1,8127441
13,796997
24,874878
20,645142
15,307617
-5,0354004
-5,4382324
-3,9276123
-5,0354004
5,8410645
14,703369
10,775757
21,148682
6,9488525
3,9276123
-10,372925
-13,192749
-16,415405
-0,50354004
3,2226562
7,1502686
2,4169922
-10,473633
-1,0070801
-4,9346924
-5,3375244
0,20141602
0,9063721
13,192749
14,602661
23,364258
24,874878
23,26355
37,86621
43,50586
48,94409
48,138428
39,678955
36,657715
45,217896
40,786743
39,37683
31,118774
14,199829
2,1148682
-10,070801
-4,5318604
6,7474365
2,6184082
18,127441
16,616821
8,963013
14,401245
19,638062
21,047974
20,443726
14,804077
10,171509
11,077881
7,4523926
10,675049
21,551514
18,026733
2,9205322
13,394165
2,5177002
-2,1148682
0,80566406
0,40283203
-0,20141602
2,5177002
1,8127441
7,0495605
-0,30212402
-2,5177002
-0,9063721
1,7120361
9,164429
4,5318604
7,2509766
6,2438965
4,9346924
6,7474365
0,30212402
7,8552246
1,6113281
3,9276123
4,9346924
3,9276123
-0,70495605
-0,80566406
2,5177002
-0,10070801
1,7120361
7,8552246
13,897705
11,984253
19,436646
13,192749
3,7261963
-4,5318604
7,9559326
16,818237
24,874878
26,28479
27,593994
21,551514
21,75293
14,703369
8,660889
4,8339844
-3,5247803
-3,8269043
-12,185669
-23,464966
-20,846558
-14,401245
-5,5389404
0,40283203
7,4523926
6,6467285
5,7403564
8,963013
15,206909
9,768677
6,1431885
-2,4169922
-2,2155762
2,0141602
5,8410645
5,1361084
8,358765
14,199829
18,832397
12,387085
2,5177002
-5,7403564
1,8127441
-13,696289
-23,666382
-11,883545
-5,5389404
-1,8127441
6,6467285
6,9488525
6,7474365
3,8269043
-2,1148682
-0,70495605
-2,9205322
-2,8198242
-4,7332764
-5,9417725
1,3092041
1,7120361
6,6467285
18,73169
18,026733
17,825317
12,991333
18,832397
19,839478
13,394165
-1,6113281
-16,71753
-13,998413
2,6184082
3,6254883
4,6325684
15,408325
13,696289
17,623901
24,472046
24,874878
15,911865
0,80566406
-12,689209
-17,926025
-23,26355
-32,93152
-26,28479
-26,28479
-36,35559
-15,005493
-10,775757
-14,501953
-10,070801
-22,457886
-27,392578
-21,047974
-15,609741
-8,660889
-7,7545166
-9,063721
-5,3375244
-10,070801
-10,977173
-10,272217
-13,897705
-13,595581
-10,574341
-1,0070801
-6,3446045
1,4099121
-0,10070801
15,206909
17,422485
15,710449
14,602661
13,092041
9,869385
7,7545166
0,30212402
-4,1290283
-8,258057
-11,682129
-8,560181
-5,5389404
-4,3304443
7,1502686
3,3233643
2,3162842
-11,883545
-45,117188
-54,281616
-50,756836
-46,92993
-26,889038
-19,436646
-1,3092041
5,7403564
6,4453125
10,876465
12,084961
7,5531006
6,8481445
3,5247803
-3,8269043
-5,9417725
-1,4099121
-9,970093
-1,2084961
1,3092041
-4,6325684
1,4099121
7,0495605
5,0354004
20,544434
19,638062
9,164429
3,6254883
-2,8198242
4,1290283
6,9488525
4,5318604
12,185669
14,904785
24,27063
26,184082
29,003906
26,385498
19,940186
18,73169
12,487793
-0,10070801
-11,883545
-11,984253
-14,099121
-12,286377
-16,415405
-13,394165
-18,328857
-17,422485
-23,666382
-22,155762
-20,846558
-20,040894
-23,162842
-21,652222
-22,155762
-9,768677
-5,3375244
-2,1148682
2,0141602
5,5389404
7,3516846
12,286377
10,272217
7,7545166
-2,6184082
2,7191162
-0,30212402
-2,4169922
-6,4453125
-9,164429
-5,7403564
-12,286377
-13,293457
-11,984253
-14,501953
-7,9559326
-9,869385
-14,401245
-15,408325
-8,761597
-3,8269043
-2,4169922
9,667969
20,544434
18,026733
14,199829
14,199829
15,609741
14,401245
19,638062
6,6467285
1,9134521
-0,80566406
-15,005493
-19,839478
-22,457886
-17,22107
-4,6325684
-2,1148682
2,4169922
1,6113281
11,782837
14,804077
8,560181
4,5318604
-1,1077881
0,9063721
-3,8269043
-13,494873
-19,033813
-17,321777
-8,963013
-4,5318604
-3,2226562
-6,3446045
-11,984253
-15,811157
-22,76001
-6,2438965
-3,0212402
3,9276123
1,9134521
10,775757
14,602661
13,998413
13,998413
8,761597
12,890625
12,185669
10,372925
15,408325
12,991333
8,157349
1,8127441
1,0070801
0
0,20141602
4,7332764
-1,3092041
0,20141602
-5,5389404
-10,675049
-1,7120361
-2,8198242
-6,1431885
-2,1148682
2,1148682
0,50354004
1,2084961
-3,8269043
2,9205322
-1,1077881
-2,1148682
1,6113281
-1,9134521
-2,5177002
-6,3446045
-4,1290283
-0,60424805
-0,40283203
2,1148682
0,9063721
9,164429
10,775757
-0,9063721
-1,5106201
4,8339844
10,876465
13,796997
14,703369
14,804077
6,2438965
4,9346924
13,494873
5,7403564
2,6184082
0,9063721
8,358765
4,0283203
5,5389404
3,7261963
-11,178589
-14,300537
-11,581421
-8,761597
-7,5531006
-11,178589
-20,645142
-26,687622
-31,32019
-25,479126
-22,860718
-17,321777
-23,666382
-14,804077
-22,457886
-20,24231
-17,321777
-12,387085
-10,775757
-14,300537
-8,761597
-7,8552246
-5,3375244
-3,1219482
-2,1148682
-4,8339844
-7,3516846
-0,30212402
-3,1219482
-3,6254883
-7,5531006
-4,7332764
3,9276123
-3,0212402
-3,8269043
-2,8198242
-4,1290283
-4,0283203
-3,2226562
-3,8269043
-5,1361084
-3,2226562
-4,4311523
-5,4382324
-8,660889
-5,4382324
-13,494873
-2,8198242
1,1077881
6,1431885
-11,581421
0,30212402
0,40283203
-4,3304443
-4,9346924
-0,9063721
-7,7545166
-3,6254883
-9,567261
-2,6184082
4,3304443
0,60424805
-0,70495605
4,0283203
9,869385
4,1290283
1,7120361
5,6396484
3,9276123
4,5318604
6,5460205
-6,5460205
-4,2297363
-7,2509766
-6,9488525
-2,7191162
0,70495605
8,459473
12,991333
2,9205322
-2,0141602
4,5318604
4,0283203
0,30212402
-0,50354004
0,50354004
-4,6325684
-1,7120361
6,9488525
7,3516846
9,466553
17,321777
5,3375244
7,6538086
18,127441
4,1290283
-2,2155762
-0,40283203
-2,8198242
-2,3162842
4,4311523
-3,5247803
-2,9205322
-5,1361084
3,2226562
-4,3304443
2,9205322
-0,60424805
0,9063721
0,10070801
0
-8,862305
-6,7474365
-1,6113281
1,3092041
4,0283203
-0,70495605
-14,401245
-8,660889
-8,157349
-10,070801
-5,4382324
-3,7261963
-2,1148682
-1,9134521
-8,660889
-2,6184082
-1,9134521
0,9063721
-6,1431885
8,056641
-0,9063721
0,20141602
1,7120361
-0,10070801
-0,20141602
-4,1290283
-6,7474365
-10,473633
-13,394165
-17,120361
-22,055054
-10,574341
-6,6467285
-3,3233643
-3,9276123
-0,30212402
5,5389404
10,473633
17,120361
7,5531006
1,4099121
2,5177002
-0,9063721
-3,8269043
-3,0212402
3,2226562
3,9276123
4,2297363
-3,1219482
-4,3304443
-4,8339844
-2,0141602
-0,9063721
-10,574341
-4,3304443
-2,3162842
-0,70495605
4,8339844
0,20141602
-7,7545166
-1,1077881
-7,3516846
-3,3233643
-8,358765
-3,5247803
-6,6467285
-6,5460205
-2,5177002
2,9205322
-3,9276123
-1,9134521
-3,9276123
1,3092041
-2,1148682
-9,265137
-17,523193
-17,019653
-23,464966
-13,897705
-6,7474365
-6,9488525
2,6184082
7,3516846
11,581421
8,761597
4,1290283
4,2297363
15,005493
5,5389404
2,3162842
-0,80566406
-3,9276123
-3,3233643
-4,1290283
-5,3375244
-10,876465
-13,696289
-12,185669
-4,5318604
-5,1361084
-4,6325684
-7,7545166
2,0141602
3,5247803
-4,5318604
7,0495605
3,4240723
-3,2226562
1,8127441
-0,60424805
0,70495605
1,4099121
-0,30212402
1,2084961
0,60424805
-0,10070801
0,9063721
5,3375244
3,9276123
7,7545166
-20,443726
-11,480713
-12,789917
-18,026733
-17,422485
-13,595581
-15,005493
-2,9205322
2,5177002
2,7191162
5,6396484
2,2155762
-3,5247803
-8,258057
-7,2509766
-10,574341
0,70495605
1,0070801
8,056641
14,199829
18,026733
11,782837
4,6325684
10,272217
3,6254883
-2,9205322
1,1077881
-1,7120361
-10,876465
-9,164429
-17,321777
-18,832397
-16,818237
-14,199829
-6,6467285
-1,0070801
-0,70495605
-6,1431885
-7,5531006
2,0141602
1,2084961
15,408325
4,3304443
9,667969
11,380005
11,682129
7,8552246
10,775757
11,178589
8,560181
8,761597
7,7545166
13,192749
4,9346924
-0,10070801
-9,265137
-10,574341
-19,134521
-20,544434
-8,560181
-10,171509
-9,164429
-8,358765
-5,9417725
0,70495605
-2,3162842
-6,3446045
-3,7261963
-2,9205322
-11,581421
-10,070801
-8,862305
1,2084961
2,9205322
-0,30212402
-7,1502686
-3,9276123
-12,588501
-11,581421
-10,675049
-11,581421
-1,8127441
-4,1290283
-8,761597
-17,019653
-10,272217
-11,077881
-11,178589
-9,164429
-0,9063721
9,063721
4,8339844
6,4453125
5,6396484
9,768677
2,9205322
7,7545166
12,387085
9,869385
5,3375244
0
-6,7474365
-11,984253
-5,5389404
-4,2297363
-2,2155762
8,560181
5,4382324
-0,20141602
2,1148682
-3,1219482
-3,5247803
-4,3304443
-4,1290283
-5,3375244
-0,30212402
6,1431885
6,6467285
6,4453125
-6,8481445
-2,1148682
-3,6254883
0,50354004
-8,459473
-14,099121
-9,164429
-8,358765
-1,7120361
-7,9559326
-11,077881
-10,272217
-10,876465
-7,9559326
-10,171509
-11,077881
-14,199829
-13,796997
-2,1148682
-1,4099121
-4,6325684
-2,8198242
-2,1148682
7,1502686
9,567261
16,616821
8,258057
9,365845
-1,8127441
0,10070801
8,358765
12,185669
19,839478
15,811157
14,602661
11,480713
8,459473
5,8410645
5,9417725
-4,5318604
6,2438965
9,970093
5,7403564
10,272217
1,2084961
-5,4382324
-19,033813
-18,328857
-29,30603
-26,083374
-29,406738
-19,335938
-12,588501
-8,258057
-8,358765
-9,567261
-5,0354004
-3,9276123
-9,970093
0
-3,0212402
-1,1077881
-3,7261963
-5,3375244
-1,9134521
-9,466553
1,7120361
-0,30212402
-1,1077881
-11,279297
-18,530273
-16,71753
-20,947266
-16,415405
-5,8410645
-4,7332764
-5,4382324
-9,869385
-0,50354004
-11,581421
5,5389404
-5,2368164
-0,60424805
-3,7261963
-0,10070801
4,3304443
-0,9063721
-2,5177002
-4,5318604
-1,4099121
-9,063721
-10,070801
-13,595581
-5,5389404
-0,9063721
-0,20141602
4,5318604
4,9346924
5,3375244
0,10070801
0,9063721
2,3162842
-0,20141602
-3,1219482
0,50354004
-1,8127441
-9,970093
0,60424805
-1,5106201
-6,8481445
-5,1361084
-3,3233643
-2,7191162
7,2509766
11,581421
12,588501
9,063721
4,7332764
4,8339844
3,3233643
-7,6538086
-4,8339844
1,7120361
3,9276123
-9,970093
-7,0495605
-9,063721
-4,1290283
16,113281
2,9205322
1,9134521
1,1077881
2,9205322
4,2297363
1,6113281
5,5389404
3,5247803
-0,10070801
-1,4099121
2,5177002
-2,5177002
0,10070801
2,6184082
1,2084961
2,0141602
-2,5177002
-1,9134521
-5,1361084
-0,50354004
3,4240723
1,7120361
0,60424805
0,50354004
-1,9134521
-9,365845
-16,616821
-15,408325
-17,321777
-6,6467285
-3,4240723
-7,9559326
-3,7261963
-4,1290283
-9,063721
-10,372925
-9,667969
-9,869385
-9,869385
3,0212402
-5,4382324
-5,9417725
-8,358765
-5,4382324
-8,258057
-8,258057
-8,660889
-0,9063721
-1,8127441
2,4169922
6,7474365
4,9346924
-0,10070801
2,2155762
3,4240723
6,7474365
12,185669
15,307617
11,682129
5,5389404
-0,20141602
17,523193
5,6396484
1,5106201
-2,6184082
-8,258057
-10,675049
-15,206909
-15,206909
-16,616821
-18,127441
-15,206909
-16,415405
-9,567261
-13,796997
-5,9417725
-1,5106201
-6,4453125
-9,667969
2,1148682
0,30212402
7,8552246
-5,0354004
-14,401245
-13,494873
-14,300537
-9,063721
-9,869385
1,8127441
-3,9276123
-5,5389404
-1,9134521
-1,0070801
11,380005
2,0141602
-1,3092041
2,6184082
-0,9063721
1,9134521
6,2438965
12,286377
10,675049
5,8410645
12,890625
10,977173
4,1290283
0,50354004
-1,4099121
-5,9417725
-7,3516846
-11,682129
-13,998413
-12,789917
-7,5531006
-11,480713
-5,8410645
-9,265137
-15,206909
-5,3375244
-1,7120361
-3,4240723
-17,120361
-24,77417
-23,062134
-15,509033
-19,73877
-18,127441
-11,581421
-0,60424805
-5,7403564
-9,667969
0,10070801
11,077881
13,394165
13,897705
12,890625
12,588501
10,977173
3,8269043
-7,5531006
-8,560181
-18,026733
-14,804077
-10,977173
-8,660889
6,1431885
-2,5177002
-3,2226562
-2,5177002
-12,185669
-11,883545
-11,883545
-9,063721
-3,5247803
-1,8127441
-1,5106201
2,1148682
0,10070801
-2,7191162
-1,3092041
2,1148682
5,5389404
5,6396484
13,293457
8,862305
2,6184082
4,1290283
-0,80566406
-1,4099121
3,0212402
6,8481445
6,7474365
15,005493
6,9488525
9,265137
9,063721
0,40283203
-9,164429
-13,293457
-10,574341
-5,1361084
-4,7332764
-3,9276123
0,10070801
-2,8198242
-0,30212402
-3,9276123
-7,6538086
-2,9205322
-10,171509
-10,574341
-5,9417725
-6,0424805
4,9346924
6,0424805
-2,7191162
3,4240723
4,3304443
2,3162842
0,10070801
5,6396484
4,4311523
8,056641
6,2438965
8,660889
1,1077881
1,9134521
-2,9205322
0,60424805
-2,5177002
-2,4169922
-0,9063721
-1,0070801
-5,1361084
-7,3516846
-4,3304443
-2,5177002
-1,5106201
-2,7191162
-3,2226562
3,3233643
-1,7120361
0,30212402
-10,574341
3,7261963
-0,50354004
5,6396484
-2,5177002
-7,6538086
2,5177002
-1,1077881
-4,4311523
-1,4099121
-7,0495605
-5,5389404
-7,8552246
-10,876465
-5,1361084
-19,033813
-23,062134
-6,5460205
-8,258057
-4,1290283
2,9205322
3,5247803
-5,5389404
-8,963013
-4,0283203
0,60424805
3,2226562
7,5531006
7,1502686
5,1361084
0
1,9134521
-0,9063721
0,40283203
4,6325684
11,077881
-0,20141602
-6,5460205
-2,5177002
-1,4099121
5,3375244
9,365845
0,10070801
-1,8127441
-6,3446045
-5,9417725
-6,7474365
-8,560181
-25,378418
-12,890625
-23,464966
-14,199829
-9,164429
-5,0354004
-3,0212402
4,3304443
3,2226562
5,5389404
8,761597
6,2438965
13,092041
6,4453125
0,40283203
5,7403564
6,4453125
3,9276123
9,970093
7,6538086
0,40283203
-7,5531006
-19,335938
-12,487793
-25,177002
-20,645142
-15,408325
-13,092041
-11,380005
-12,991333
-22,457886
-23,666382
-21,853638
-16,415405
-5,7403564
-3,8269043
-9,970093
-14,300537
-9,365845
-10,272217
-15,911865
-17,22107
-11,682129
-7,2509766
-7,2509766
-5,0354004
-1,1077881
1,7120361
-3,3233643
4,1290283
-0,10070801
-0,80566406
-2,7191162
-8,963013
1,7120361
2,0141602
-0,50354004
1,9134521
-0,10070801
-1,4099121
-5,7403564
-5,9417725
-2,4169922
-2,6184082
1,3092041
-0,10070801
-0,70495605
-1,4099121
-2,1148682
1,3092041
5,8410645
7,9559326
8,056641
0,50354004
0,80566406
10,272217
6,0424805
2,3162842
1,9134521
4,7332764
-6,9488525
-15,307617
-16,616821
-7,3516846
-0,9063721
-3,4240723
-5,4382324
-12,185669
-8,459473
0,30212402
-2,7191162
-4,1290283
-5,9417725
2,3162842
-4,4311523
-10,272217
2,2155762
0,9063721
2,3162842
-1,9134521
-6,6467285
-8,358765
-5,8410645
7,9559326
6,5460205
-1,4099121
-0,50354004
2,4169922
-4,3304443
-5,0354004
-1,5106201
-4,9346924
0,40283203
-3,2226562
2,1148682
0,80566406
1,2084961
-0,10070801
4,5318604
-0,10070801
-3,1219482
-2,4169922
-3,8269043
1,6113281
-3,7261963
2,9205322
1,3092041
-0,10070801
-5,5389404
-2,7191162
-1,8127441
-6,0424805
-2,8198242
-3,8269043
-9,063721
-0,50354004
-12,084961
-0,30212402
0
-10,171509
-7,7545166
-4,5318604
1,8127441
-4,3304443
-8,358765
-3,5247803
-3,1219482
-6,7474365
-11,883545
-11,984253
-6,3446045
-5,7403564
-3,2226562
-5,0354004
-2,6184082
5,7403564
6,1431885
8,258057
9,567261
5,4382324
2,1148682
6,8481445
8,761597
6,6467285
7,5531006
2,3162842
-10,574341
-7,9559326
-10,272217
-10,473633
-9,063721
-7,5531006
-19,033813
-17,22107
-20,846558
-20,040894
-21,652222
-14,401245
-13,293457
-11,480713
1,6113281
10,977173
15,609741
9,063721
23,26355
11,682129
8,358765
10,977173
5,9417725
1,7120361
3,0212402
-7,1502686
-9,567261
-9,365845
-15,911865
-11,883545
-16,616821
-22,25647
-21,350098
-13,092041
-19,73877
-21,24939
-33,132935
-27,896118
-18,22815
-14,099121
-1,4099121
4,8339844
-2,4169922
2,9205322
5,8410645
6,5460205
1,7120361
-1,7120361
-10,977173
-3,7261963
0,70495605
5,9417725
5,3375244
6,1431885
-3,1219482
15,911865
3,7261963
2,7191162
5,0354004
-8,560181
-0,10070801
-10,775757
-5,3375244
-0,80566406
1,9134521
6,4453125
6,6467285
12,789917
9,466553
2,3162842
6,5460205
9,063721
7,6538086
9,869385
4,1290283
22,76001
19,537354
12,185669
16,516113
8,560181
3,0212402
5,6396484
-3,7261963
2,4169922
-7,8552246
-11,782837
-23,062134
-33,83789
-31,924438
-36,557007
-31,82373
-22,155762
-16,818237
-12,890625
-3,7261963
-0,9063721
-1,0070801
-3,9276123
-4,3304443
-7,3516846
-4,6325684
-9,265137
-7,6538086
-9,466553
-10,171509
-11,782837
-2,7191162
5,6396484
13,394165
14,804077
15,911865
16,616821
3,2226562
-0,9063721
0,9063721
-1,4099121
-4,4311523
-9,164429
-14,602661
-24,472046
-27,392578
-29,708862
-26,687622
-12,789917
-2,3162842
5,3375244
8,963013
13,494873
13,998413
-0,40283203
0,50354004
-4,7332764
-6,3446045
-3,3233643
-6,3446045
-7,2509766
-2,7191162
-5,7403564
-10,876465
-3,8269043
2,1148682
-0,10070801
7,6538086
6,7474365
13,092041
6,9488525
5,5389404
-0,70495605
-4,0283203
-3,8269043
-6,7474365
-3,5247803
-6,3446045
-4,5318604
-2,4169922
-4,9346924
-7,5531006
-10,171509
-1,2084961
4,1290283
2,0141602
5,5389404
4,9346924
3,5247803
-2,1148682
-4,0283203
-10,775757
-8,258057
-15,005493
-6,8481445
-2,7191162
-9,265137
-0,30212402
4,1290283
3,3233643
-6,9488525
-2,8198242
-4,0283203
-3,5247803
-12,689209
-13,897705
0,10070801
-0,20141602
3,6254883
-3,8269043
0,50354004
-4,3304443
-7,3516846
0,60424805
-2,0141602
1,7120361
-3,3233643
-5,2368164
-0,60424805
-4,8339844
13,092041
-1,8127441
-0,30212402
-7,0495605
-3,9276123
-6,0424805
-10,775757
-6,2438965
-6,0424805
-7,0495605
-7,5531006
-4,7332764
-8,358765
-0,10070801
2,9205322
9,869385
-8,963013
-5,4382324
-7,5531006
-0,60424805
15,408325
6,4453125
3,9276123
-4,7332764
-0,30212402
-2,9205322
2,2155762
2,3162842
7,1502686
2,1148682
6,2438965
7,8552246
8,660889
-2,2155762
4,5318604
15,206909
9,667969
21,047974
8,963013
2,3162842
0,9063721
-1,6113281
-1,6113281
-0,9063721
-6,8481445
-6,8481445
-15,106201
-2,0141602
-9,365845
-12,387085
-17,72461
-3,4240723
-8,157349
-12,084961
-13,998413
-13,998413
-18,127441
-9,466553
-9,164429
-12,185669
-9,768677
-12,789917
-12,789917
-3,9276123
-9,164429
-9,970093
-5,4382324
-9,567261
-13,192749
-7,5531006
-6,1431885
-4,7332764
-4,5318604
-5,0354004
4,6325684
-7,1502686
-10,977173
-6,7474365
-10,473633
-10,473633
-4,8339844
-4,5318604
-3,2226562
2,3162842
3,8269043
-3,8269043
4,5318604
0,30212402
-3,4240723
1,6113281
-0,30212402
2,5177002
-3,9276123
6,8481445
0,50354004
5,5389404
0,80566406
-9,164429
-3,1219482
-7,1502686
5,5389404
-0,10070801
0,10070801
5,0354004
0,70495605
-4,6325684
-2,0141602
1,8127441
3,1219482
0,50354004
1,7120361
-4,7332764
-4,4311523
-5,8410645
-3,3233643
-4,3304443
0,9063721
-1,2084961
-7,9559326
-4,3304443
-0,30212402
-7,1502686
-8,761597
-13,494873
-10,171509
-11,782837
0,10070801
-6,3446045
-1,4099121
-2,8198242
-14,401245
-7,7545166
-3,9276123
-11,077881
-2,8198242
-4,7332764
-5,8410645
-5,1361084
5,2368164
7,7545166
5,3375244
7,2509766
10,372925
4,9346924
1,6113281
0,60424805
6,4453125
4,9346924
15,811157
5,5389404
5,7403564
0,40283203
-5,1361084
-3,0212402
-10,171509
-2,7191162
-8,358765
0
-7,8552246
-8,963013
-14,804077
-8,761597
-0,20141602
-9,164429
-4,1290283
-7,7545166
-16,818237
-9,365845
4,7332764
13,595581
9,970093
8,056641
7,2509766
8,157349
4,1290283
-2,9205322
-3,3233643
-1,1077881
0,30212402
-5,4382324
3,0212402
1,9134521
1,1077881
0,9063721
5,1361084
3,8269043
-5,5389404
9,164429
7,5531006
7,4523926
6,5460205
5,7403564
11,883545
6,6467285
1,5106201
-0,50354004
-2,7191162
-9,768677
-12,588501
-10,171509
-14,199829
-18,73169
-13,796997
-13,595581
-12,789917
-15,206909
-19,033813
-23,162842
-12,588501
-14,300537
-11,178589
-8,358765
-12,588501
-12,387085
-13,595581
-10,272217
-6,2438965
-10,775757
10,977173
1,1077881
-4,2297363
-12,588501
-8,560181
-4,8339844
-9,063721
-9,164429
-8,963013
-7,9559326
-5,1361084
-3,9276123
0,30212402
-3,9276123
4,1290283
6,1431885
2,8198242
-2,8198242
-4,4311523
-3,4240723
-2,7191162
-2,3162842
0,60424805
-1,9134521
0,60424805
0,20141602
3,1219482
-0,9063721
2,5177002
5,3375244
1,7120361
1,2084961
1,6113281
5,3375244
-2,8198242
-6,1431885
-7,9559326
-14,501953
-12,084961
-11,984253
-16,012573
-11,178589
-14,904785
-7,3516846
-8,056641
-1,2084961
-1,3092041
-8,157349
-4,3304443
4,6325684
-2,7191162
-0,9063721
0
3,5247803
7,1502686
5,0354004
-0,9063721
1,9134521
0,40283203
6,0424805
10,473633
4,8339844
-5,3375244
-2,7191162
-8,660889
-7,3516846
-3,2226562
-5,9417725
-9,466553
-6,8481445
-1,3092041
1,7120361
2,3162842
3,4240723
1,8127441
-5,3375244
-2,7191162
-9,768677
2,1148682
-8,560181
-2,4169922
-2,9205322
-1,9134521
-6,3446045
-15,408325
-10,775757
-9,164429
-2,5177002
-7,7545166
-2,4169922
-2,4169922
-3,8269043
-1,1077881
0,10070801
4,2297363
-1,1077881
4,2297363
6,7474365
-1,8127441
17,321777
11,984253
12,588501
4,9346924
9,466553
9,063721
2,8198242
2,6184082
9,768677
15,509033
15,911865
10,876465
11,883545
0,20141602
2,3162842
-0,9063721
-2,3162842
-0,9063721
6,2438965
4,9346924
6,1431885
7,5531006
-8,358765
-7,5531006
-13,394165
-10,372925
-13,897705
-4,4311523
-8,056641
1,3092041
-6,5460205
-10,171509
-5,6396484
-5,1361084
-3,7261963
-4,2297363
-8,258057
-16,71753
-11,077881
-3,2226562
4,6325684
-3,3233643
7,4523926
-1,0070801
-5,9417725
-15,509033
-12,185669
-10,171509
-14,099121
-12,084961
-10,977173
2,5177002
-2,6184082
-9,164429
-5,9417725
-2,7191162
-4,4311523
-15,005493
-12,185669
-6,3446045
-8,963013
-12,185669
-11,178589
-15,609741
-6,7474365
-0,40283203
2,6184082
7,4523926
0,80566406
7,5531006
6,3446045
11,480713
-1,3092041
-3,1219482
-17,321777
-3,7261963
-2,6184082
-2,3162842
-1,4099121
-6,5460205
-5,8410645
-3,8269043
-4,6325684
-2,4169922
-0,20141602
-8,660889
-9,164429
-8,660889
-7,1502686
2,4169922
2,3162842
0,9063721
-1,7120361
4,3304443
2,5177002
-7,0495605
5,1361084
-0,60424805
0,40283203
-4,2297363
-5,7403564
-3,4240723
-3,6254883
-2,4169922
-0,70495605
2,2155762
-3,1219482
-3,9276123
1,5106201
1,1077881
-4,3304443
-4,0283203
0,60424805
3,1219482
3,3233643
2,9205322
8,358765
7,5531006
2,5177002
1,2084961
-1,1077881
3,5247803
-7,1502686
-10,372925
4,3304443
-5,5389404
-3,6254883
-15,106201
-12,689209
-16,71753
-18,22815
-13,192749
-5,6396484
-6,6467285
-8,761597
-2,2155762
-2,9205322
-10,675049
-10,171509
-3,0212402
-3,7261963
-1,3092041
5,1361084
-2,1148682
-2,9205322
-0,9063721
-4,1290283
-2,3162842
-4,2297363
-11,984253
-10,675049
-17,523193
-10,876465
-4,7332764
-6,1431885
-3,1219482
-7,7545166
-12,588501
-4,6325684
-5,9417725
-10,574341
-2,1148682
2,1148682
-3,9276123
-4,3304443
1,9134521
4,5318604
2,1148682
3,7261963
-1,0070801
6,5460205
4,8339844
2,4169922
8,963013
3,3233643
-2,4169922
7,8552246
-9,768677
-10,574341
-5,1361084
-7,6538086
-10,574341
-13,394165
-21,450806
-18,026733
-13,293457
-5,7403564
0,30212402
2,7191162
15,005493
11,380005
17,019653
11,480713
7,3516846
4,5318604
6,6467285
1,5106201
-12,286377
-12,689209
-17,321777
-18,630981
-15,206909
-6,4453125
-5,3375244
-9,365845
0,60424805
-5,8410645
2,3162842
1,5106201
5,3375244
12,487793
9,164429
-3,2226562
-3,2226562
-2,9205322
-3,8269043
2,9205322
2,9205322
-5,0354004
-1,0070801
-7,5531006
-5,6396484
-5,9417725
-10,775757
-5,7403564
-9,567261
-3,9276123
-4,0283203
0,30212402
-0,30212402
4,9346924
0,40283203
1,4099121
2,4169922
-0,30212402
4,3304443
12,387085
3,6254883
2,5177002
2,7191162
-2,4169922
-6,4453125
-7,1502686
-8,761597
-6,3446045
-10,574341
-4,1290283
-0,70495605
-2,1148682
-3,7261963
1,1077881
-4,2297363
-4,0283203
4,1290283
-1,7120361
-3,5247803
-1,8127441
-4,0283203
-5,4382324
-7,7545166
-6,6467285
-3,9276123
-3,0212402
1,4099121
2,6184082
1,3092041
0,20141602
20,141602
8,459473
11,480713
9,365845
5,6396484
1,4099121
-3,5247803
-8,258057
-15,106201
-0,70495605
-6,2438965
6,4453125
3,5247803
-3,7261963
5,8410645
-13,092041
-14,401245
-19,134521
-18,026733
-9,567261
-9,063721
-0,20141602
-4,1290283
-3,0212402
0,60424805
-0,70495605
-2,1148682
-7,7545166
-2,6184082
-5,4382324
-5,1361084
-5,3375244
-8,258057
-4,3304443
-1,7120361
-4,3304443
-12,689209
-2,4169922
-5,3375244
-1,4099121
4,9346924
2,7191162
-3,3233643
-1,7120361
-1,1077881
-9,970093
-3,6254883
0,10070801
-5,5389404
4,1290283
-8,056641
-4,7332764
5,5389404
-1,8127441
-4,7332764
1,4099121
-3,6254883
-7,4523926
0,9063721
0,70495605
-2,0141602
-6,2438965
-4,7332764
-1,2084961
-8,660889
-5,0354004
-2,1148682
-4,3304443
-3,4240723
-1,2084961
-8,358765
-4,4311523
-2,0141602
-4,7332764
-5,9417725
-2,3162842
-2,5177002
-1,8127441
-2,3162842
-4,1290283
-1,1077881
2,5177002
16,113281
2,4169922
0,70495605
-4,2297363
2,5177002
-1,1077881
-3,4240723
0,30212402
-0,9063721
6,8481445
4,5318604
-1,9134521
-7,7545166
-11,883545
-15,206909
-14,099121
-11,480713
-15,609741
-4,5318604
-0,60424805
2,7191162
-3,2226562
-4,2297363
-0,70495605
0,70495605
-4,5318604
-2,3162842
-7,0495605
-4,3304443
-6,5460205
-3,2226562
-6,3446045
-6,5460205
-6,7474365
-6,7474365
-5,9417725
-9,768677
-8,258057
-5,4382324
-4,5318604
3,4240723
14,703369
7,5531006
-0,10070801
-3,6254883
-3,8269043
-5,1361084
-5,4382324
-12,185669
-12,185669
-4,6325684
2,7191162
3,3233643
-1,4099121
-3,6254883
-5,5389404
-4,4311523
-5,2368164
-15,710449
2,9205322
-8,660889
-11,883545
-11,581421
-15,609741
-12,185669
-9,365845
-1,5106201
1,1077881
5,2368164
1,0070801
-5,1361084
6,5460205
1,3092041
7,7545166
10,876465
16,415405
19,436646
11,581421
16,516113
1,3092041
0,9063721
-6,4453125
-15,005493
-11,984253
-5,2368164
1,7120361
1,9134521
-5,9417725
-10,070801
-9,466553
-5,7403564
-11,682129
-4,9346924
-2,7191162
0,20141602
2,8198242
1,2084961
-0,30212402
-2,1148682
-7,8552246
-9,063721
0,50354004
-2,8198242
-7,2509766
-3,5247803
-4,2297363
0,30212402
-2,6184082
0,20141602
-3,6254883
3,7261963
-6,3446045
-5,1361084
-1,6113281
3,0212402
0,20141602
8,056641
7,7545166
2,7191162
1,4099121
-8,660889
-5,1361084
-7,2509766
-7,9559326
-5,1361084
6,0424805
-3,9276123
-2,7191162
1,3092041
-2,3162842
-2,5177002
-9,265137
-6,3446045
-14,804077
-13,092041
-8,963013
-4,0283203
-6,9488525
-1,0070801
-1,6113281
-4,0283203
-10,372925
-1,5106201
-7,8552246
-11,178589
-7,4523926
-0,10070801
-0,80566406
-1,3092041
-5,1361084
-5,1361084
7,4523926
13,192749
17,523193
13,696289
18,73169
-2,6184082
6,5460205
3,9276123
0,80566406
-0,9063721
-0,10070801
-2,1148682
-1,6113281
2,2155762
3,5247803
2,9205322
-1,5106201
-1,3092041
1,4099121
-0,20141602
1,1077881
-5,5389404
1,1077881
-7,3516846
-7,3516846
-2,7191162
1,3092041
1,2084961
0,9063721
-2,3162842
4,0283203
9,768677
3,5247803
6,5460205
4,5318604
11,883545
4,5318604
1,9134521
1,8127441
8,761597
7,4523926
2,2155762
-0,50354004
-0,70495605
-2,8198242
-13,595581
-5,4382324
-3,7261963
-0,20141602
-1,9134521
-4,1290283
-8,560181
-7,0495605
-2,3162842
0,70495605
-2,8198242
-8,660889
-17,72461
-17,926025
-12,588501
-8,963013
-1,0070801
-1,9134521
-8,963013
-4,7332764
-6,8481445
-12,890625
-2,8198242
-8,560181
-12,789917
-12,588501
-12,890625
-9,869385
-14,804077
-14,602661
-15,106201
-16,616821
-15,609741
-12,689209
-9,365845
-6,7474365
-5,9417725
-3,4240723
-2,8198242
-2,7191162
2,5177002
5,9417725
-0,30212402
2,4169922
17,22107
17,019653
16,818237
15,005493
13,796997
6,5460205
-1,8127441
-1,6113281
-7,7545166
-0,10070801
-1,3092041
-2,3162842
-0,50354004
-0,70495605
-4,4311523
-7,1502686
-5,3375244
-10,171509
-11,380005
-15,206909
-18,026733
-21,853638
-25,076294
-22,155762
-17,422485
-11,782837
-8,560181
-16,314697
-26,28479
-11,178589
-12,487793
-10,574341
-8,963013
-5,5389404
-11,178589
-11,077881
-11,279297
-11,782837
-6,3446045
-5,1361084
2,8198242
8,761597
11,178589
11,380005
7,1502686
7,0495605
4,5318604
1,2084961
-0,50354004
1,1077881
2,9205322
-2,5177002
-0,70495605
1,7120361
-4,8339844
1,8127441
1,5106201
-3,1219482
1,4099121
-2,2155762
-7,9559326
-8,963013
-1,3092041
-12,084961
-5,9417725
-9,869385
-8,963013
-15,408325
-13,796997
-11,178589
-21,853638
-15,005493
-12,789917
-14,804077
-2,8198242
1,6113281
8,862305
5,9417725
9,265137
2,1148682
6,9488525
0,30212402
1,6113281
-3,9276123
-2,3162842
-0,30212402
3,4240723
-3,2226562
2,5177002
2,3162842
6,7474365
4,4311523
8,862305
4,7332764
15,609741
-5,2368164
-5,2368164
-2,9205322
-12,890625
-16,012573
-18,026733
-15,811157
-12,588501
-8,157349
-8,660889
-9,567261
-4,7332764
-1,5106201
-0,9063721
-0,30212402
-12,789917
-0,80566406
4,1290283
3,2226562
12,387085
10,977173
12,084961
4,3304443
3,5247803
3,9276123
-0,70495605
-4,8339844
-3,1219482
-6,9488525
-1,2084961
-5,7403564
-10,977173
-14,300537
-16,012573
-2,7191162
-1,7120361
-4,1290283
-6,9488525
-3,9276123
2,0141602
-4,4311523
-7,9559326
-0,50354004
-0,50354004
-7,4523926
-4,7332764
-6,1431885
-3,8269043
2,6184082
3,5247803
1,2084961
2,8198242
-1,5106201
2,7191162
4,3304443
-1,0070801
-1,1077881
-7,2509766
-7,5531006
-10,171509
-13,394165
-5,9417725
-0,20141602
0,50354004
8,660889
0,50354004
-4,4311523
-2,2155762
2,9205322
-5,0354004
-5,2368164
-0,60424805
0,50354004
-0,20141602
-5,9417725
-1,9134521
5,5389404
12,588501
18,73169
15,005493
12,084961
12,890625
8,358765
10,473633
23,162842
18,127441
12,991333
12,588501
6,1431885
6,9488525
7,7545166
11,380005
3,6254883
-0,10070801
-6,5460205
-1,9134521
-12,185669
-19,436646
-19,537354
-20,544434
-19,638062
-9,365845
-7,7545166
-14,804077
-10,574341
-12,890625
-6,3446045
-13,293457
-6,7474365
-7,7545166
-1,1077881
-6,1431885
-7,3516846
-8,560181
-3,6254883
-8,459473
-7,3516846
-7,3516846
-10,675049
-12,991333
-0,10070801
-8,963013
-1,1077881
-3,7261963
-0,60424805
-2,1148682
-2,9205322
-5,7403564
-4,8339844
2,7191162
3,5247803
5,5389404
4,2297363
1,2084961
2,1148682
-0,10070801
0,60424805
2,1148682
-1,3092041
-2,1148682
-4,2297363
-4,3304443
-5,6396484
-3,2226562
-4,7332764
-2,2155762
-3,7261963
-0,50354004
1,4099121
-0,70495605
1,7120361
-6,6467285
-5,3375244
-4,7332764
-2,9205322
-1,5106201
-9,466553
-3,8269043
-3,5247803
-3,7261963
-3,9276123
-3,7261963
-4,5318604
-9,164429
2,3162842
5,9417725
-3,7261963
-13,293457
-0,80566406
-3,8269043
-3,5247803
1,1077881
-11,782837
-7,4523926
-1,4099121
-9,164429
-9,063721
-4,3304443
-8,560181
-7,4523926
-0,80566406
8,258057
6,4453125
6,1431885
13,494873
4,3304443
2,6184082
1,2084961
-1,5106201
-0,40283203
2,6184082
-2,1148682
-2,2155762
-3,3233643
-2,8198242
2,5177002
3,4240723
3,7261963
-6,3446045
-2,7191162
-7,1502686
-4,8339844
-2,7191162
-11,581421
-9,063721
-8,157349
-6,0424805
-1,5106201
-5,1361084
-4,0283203
-11,581421
-5,4382324
-3,6254883
-5,1361084
-1,3092041
1,0070801
-2,7191162
-7,0495605
-0,30212402
2,4169922
1,6113281
-5,5389404
-3,5247803
-5,4382324
-8,258057
-3,3233643
3,7261963
0
0,9063721
6,4453125
6,9488525
5,3375244
-1,7120361
4,6325684
3,2226562
1,0070801
-3,0212402
-6,3446045
-5,4382324
-5,5389404
0,70495605
-7,9559326
-8,358765
-7,9559326
-9,466553
-9,869385
-11,984253
-8,660889
-12,185669
-16,113281
-17,019653
-16,415405
-14,401245
-12,387085
-6,3446045
-9,466553
-4,6325684
-7,8552246
4,3304443
-6,3446045
-5,6396484
-5,5389404
2,5177002
-13,696289
-0,70495605
1,3092041
-7,0495605
-1,9134521
6,4453125
7,9559326
2,3162842
2,1148682
9,768677
5,4382324
3,5247803
-0,70495605
-1,1077881
-7,2509766
3,7261963
5,5389404
-2,0141602
-4,1290283
-8,862305
-14,602661
-18,933105
-20,24231
-17,825317
-15,106201
-12,588501
-12,387085
-6,7474365
-7,9559326
-3,2226562
-0,9063721
4,6325684
-2,7191162
0,70495605
3,3233643
0,20141602
4,5318604
-8,258057
-17,019653
-8,056641
-4,8339844
-8,459473
-0,50354004
3,1219482
1,7120361
-0,50354004
0,20141602
3,7261963
4,5318604
-5,9417725
4,4311523
-2,4169922
3,3233643
0,70495605
7,2509766
5,2368164
5,7403564
3,7261963
-0,10070801
0,50354004
-0,20141602
4,5318604
0,70495605
8,862305
8,761597
8,660889
9,768677
18,832397
18,429565
11,782837
-1,2084961
-5,4382324
-7,3516846
-13,897705
-12,387085
-8,560181
-14,804077
-5,7403564
-2,4169922
-1,8127441
-4,1290283
-10,574341
-8,660889
-12,789917
-18,127441
-12,689209
-11,581421
-11,077881
-4,6325684
-16,516113
-10,473633
-8,157349
-7,9559326
4,5318604
0,40283203
9,970093
2,0141602
0,10070801
2,0141602
4,5318604
-4,7332764
-2,7191162
-1,5106201
-7,9559326
-8,963013
-7,4523926
-11,581421
-3,2226562
-4,3304443
-11,178589
-8,560181
-8,761597
-0,9063721
-10,876465
-9,970093
-5,4382324
0
-12,991333
-2,5177002
-6,0424805
0,20141602
-0,10070801
6,0424805
0,50354004
-1,5106201
3,6254883
2,0141602
-3,1219482
-0,9063721
-0,80566406
5,3375244
-0,10070801
-2,0141602
-2,5177002
-2,6184082
-3,7261963
-2,8198242
-6,5460205
-11,077881
-12,689209
-17,523193
-18,127441
-10,372925
-6,0424805
-1,1077881
-2,5177002
-4,6325684
-0,9063721
4,4311523
2,4169922
1,3092041
-5,0354004
-4,6325684
-6,3446045
-3,3233643
-7,3516846
-2,3162842
3,9276123
3,0212402
5,6396484
8,963013
0,70495605
-1,1077881
2,2155762
-4,1290283
-6,1431885
-0,30212402
-1,1077881
4,9346924
-5,7403564
-1,0070801
-4,5318604
-2,5177002
3,4240723
2,0141602
4,0283203
5,3375244
3,7261963
8,761597
8,459473
6,4453125
7,3516846
1,3092041
-4,6325684
-7,8552246
-7,9559326
-12,991333
-15,408325
-19,839478
-22,659302
-30,715942
-26,889038
-25,177002
-17,019653
-19,839478
-13,897705
-23,364258
-4,8339844
-9,265137
-8,862305
-3,4240723
-4,9346924
-3,7261963
-4,5318604
0,20141602
2,8198242
7,3516846
4,5318604
6,2438965
-2,3162842
-0,10070801
1,5106201
3,8269043
2,7191162
-0,10070801
1,0070801
-3,0212402
0,20141602
4,7332764
-2,0141602
-4,4311523
2,4169922
0,30212402
1,7120361
5,3375244
11,077881
9,567261
15,307617
11,380005
11,782837
15,005493
10,574341
3,1219482
11,581421
23,464966
37,96692
47,43347
69,992065
106,8512
156,60095
193,46008
195,67566
185,80627
157,40662
107,958984
108,26111
161,53564
192,25159
184,29565
154,78821
114,80713
59,014893
48,843384
42,599487
22,055054
20,443726
4,9346924
2,5177002
-28,80249
-37,564087
-50,857544
-38,067627
-30,111694
-41,088867
-72,20764
-83,688354
-92,65137
-85,198975
-50,756836
-38,974
-51,159668
-81,27136
-124,17297
-151,96838
-141,29333
-129,40979
-144,41528
-177,04468
-149,85352
-73,71826
179,7638
438,9862
487,9303
374,9359
300,81482
356,40564
408,97522
397,4945
348,75183
264,96277
177,64893
85,60181
35,650635
12,991333
10,272217
0,70495605
-4,7332764
-23,76709
-74,92676
-98,59314
-107,25403
-146,93298
-237,7716
-340,49377
-378,05786
-364,26086
-317,0288
-280,16968
-243,9148
-213,8031
-150,75989
-114,20288
-77,142334
-39,37683
-44,210815
-69,89136
-106,54907
-138,77563
-164,6576
-181,1737
-202,4231
-215,81726
-217,22717
-210,27832
-197,4884
-178,656
-161,23352
-149,24927
-131,12183
-112,994385
-101,01013
-89,93225
-76,034546
-69,28711
-54,281616
-43,40515
-37,86621
-31,521606
-29,30603
-24,069214
-14,300537
-16,818237
-20,645142
-24,371338
-5,1361084
-5,5389404
-9,063721
-5,1361084
-8,560181
-4,3304443
-1,1077881
3,9276123
3,3233643
7,1502686
12,387085
5,5389404
12,991333
9,063721
15,206909
13,394165
17,321777
16,818237
12,286377
11,782837
13,092041
17,523193
11,682129
17,623901
20,141602
21,24939
20,645142
14,099121
13,494873
10,272217
20,74585
12,185669
19,839478
24,572754
25,78125
14,099121
13,998413
10,272217
15,911865
16,21399
16,71753
16,616821
18,429565
18,630981
18,127441
29,104614
21,853638
20,141602
21,047974
22,25647
18,026733
14,602661
8,660889
9,970093
16,616821
15,408325
15,811157
26,184082
29,104614
27,493286
23,464966
16,21399
12,689209
10,171509
2,3162842
5,7403564
-0,30212402
-12,789917
-60,827637
-19,638062
31,723022
23,968506
-8,761597
-14,300537
-15,005493
-28,198242
80,163574
268,78967
359,6283
353,4851
329,91943
313,90686
334,6527
383,19397
413,40637
400,51575
361,84387
322,36633
287,11853
260,12878
244,51904
182,2815
96,98181
13,394165
-45,318604
-69,08569
-154,08325
-310,98633
-363,65662
-266,97693
-222,6654
-255,2948
-213,40027
-121,35315
-82,07703
-126,89209
-187,11548
-258,31604
-352,88086
-430,72815
-386,61804
-174,7284
120,44678
381,0791
512,2009
550,6714
559,03015
522,67456
458,02002
424,48425
481,38428
568,0939
625,90027
612,3047
588,5376
542,4133
520,15686
477,35596
389,63928
282,7881
84,59473
-227,09656
-480,4779
-515,7257
-494,77844
-486,8225
-482,49207
-475,3418
-570,30945
-717,34314
-783,00476
-655,307
-506,25916
-453,28674
-402,3285
-247,94312
-199,9054
-130,8197
-5,3375244
109,16748
191,04309
234,64966
305,5481
203,02734
-2,2155762
-151,36414
-110,37598
-76,638794
-46,728516
-54,483032
-230,62134
-452,6825
-604,8523
-512,9059
-134,74731
207,5592
368,99414
423,7793
385,71167
335,7605
354,08936
393,86902
374,53308
417,4347
532,1411
637,6831
487,8296
327,80457
206,75354
80,4657
-47,131348
-84,59473
76,43738
365,8722
351,37024
207,96204
90,737915
3,7261963
-88,42163
-208,36487
-307,36084
-357,312
-395,78247
-390,84778
-405,75256
-408,7738
-310,28137
-151,06201
98,59314
313,70544
299,10278
198,6969
145,9259
139,682
91,8457
-9,164429
-134,74731
-319,3451
-486,92322
-653,49426
-781,897
-854,9103
-849,0692
-754,7058
-637,4817
-541,40625
-450,76904
-350,56458
-228,8086
-98,39172
3,3233643
81,7749
149,04785
202,72522
247,23816
293,56384
276,8463
194,26575
292,9596
290,13977
226,08948
124,77722
82,58057
95,773315
75,631714
-12,185669
-110,980225
-167,1753
-192,85583
-219,74487
-272,11304
-334,95483
-494,3756
-446,13647
-199,30115
11,682129
72,71118
160,12573
270,401
326,59607
333,64563
327,80457
275,63782
198,59619
69,79065
-45,318604
-109,87244
-143,20679
-161,0321
-177,2461
-193,56079
-206,14929
-205,84717
-171,60645
-124,37439
-111,58447
-115,31067
-101,412964
-84,09119
-71,80481
-61,23047
-61,532593
-48,843384
-54,68445
-47,93701
-40,182495
-35,44922
-42,49878
-40,283203
-40,88745
-42,90161
-42,599487
-29,30603
-25,177002
-23,062134
-26,486206
-20,544434
-12,286377
-1,5106201
11,279297
14,602661
16,616821
10,977173
0,30212402
-88,42163
-164,85901
-199,60327
-319,3451
-545,8374
-835,57434
-1115,2405
-1142,1295
-1007,98645
-804,7577
-617,3401
-393,6676
-183,18787
45,117188
230,92346
419,9524
650,87585
818,15186
933,4625
1079,3884
1063,5773
909,494
872,7356
869,2108
885,6262
858,8379
709,2865
468,49365
165,26184
37,36267
94,86694
35,650635
-88,220215
-133,53882
-51,05896
52,06604
130,21545
159,42078
164,35547
211,78894
311,69128
318,74084
193,25867
-55,69153
-166,87317
-103,427124
1,9134521
31,924438
11,480713
-12,991333
-9,164429
-6,4453125
-32,42798
-173,72131
-333,3435
-411,49292
-403,03345
-443,8202
-585,8185
-795,39185
-1175,3632
-1429,8523
-1522,3022
-1398,8342
-1271,3379
-1130,1453
-915,7379
-698,2086
-497,59827
-255,69763
32,528687
287,72278
577,5604
1052,4994
1482,2205
1596,2219
1473,1567
1354,8248
1185,2325
961,56006
764,7766
593,6737
404,24194
213,60168
37,564087
-69,89136
-131,62537
-157,30591
-133,2367
-108,05969
-91,44287
-77,645874
-49,145508
16,818237
55,08728
65,460205
38,269043
6,4453125
-26,28479
-19,940186
-31,82373
-30,111694
-44,110107
-68,58215
-89,227295
-92,752075
-91,744995
-85,29968
-76,7395
-68,78357
-63,345337
-61,834717
-63,043213
-57,806396
-63,74817
-50,756836
-64,25171
-55,892944
-65,76233
-81,674194
-75,128174
-69,58923
-66,36658
-72,10693
-77,645874
-69,58923
-51,864624
-43,40515
-31,118774
-30,31311
-16,71753
-8,560181
-3,7261963
4,7332764
11,279297
14,501953
21,551514
26,78833
35,046387
60,827637
56,19507
41,89453
33,9386
15,106201
-1,7120361
-14,401245
-36,154175
-43,707275
-39,88037
-10,272217
-20,544434
-192,05017
-336,46545
-323,57483
-297,39075
-279,66614
-165,56396
11,581421
184,19495
240,59143
197,68982
57,806396
-83,08411
-110,17456
-87,213135
-169,08875
-379,56848
-560,23865
-582,5958
-480,4779
-257,61108
118,533325
499,3103
738,3911
843,631
877,4689
888,34534
743,4265
561,74927
388,7329
248,34595
191,34521
136,96289
84,09119
-5,1361084
-94,66553
-150,75989
-172,71423
-173,31848
-155,49316
-136,05652
-118,13049
-99,49951
-87,81738
-83,08411
-71,30127
-75,73242
-79,45862
-101,312256
-128,80554
-137,46643
-131,82678
-136,05652
-185,80627
-206,65283
-214,81018
-216,2201
-194,46716
-187,51831
-184,29565
-166,47034
-134,6466
-98,291016
-27,29187
52,166748
119,64111
152,06909
204,33655
231,02417
216,62292
210,37903
197,99194
163,4491
133,3374
96,98181
57,10144
33,132935
24,77417
25,982666
23,162842
28,903198
6,2438965
-24,472046
-37,36267
-42,800903
-37,765503
-34,44214
-27,29187
-17,019653
-6,7474365
-11,682129
-15,307617
-14,602661
-19,537354
-18,429565
-13,192749
-8,560181
-5,7403564
-2,3162842
-5,6396484
-6,7474365
-4,6325684
-7,9559326
-3,1219482
-12,588501
-10,775757
-1,9134521
0,10070801
-1,4099121
3,9276123
2,6184082
2,3162842
-2,0141602
-5,1361084
-5,7403564
-2,1148682
-6,1431885
-6,3446045
0,30212402
2,1148682
-3,4240723
-11,077881
-0,60424805
0
1,6113281
0,10070801
-0,10070801
-5,4382324
-7,5531006
-3,1219482
-6,7474365
-1,1077881
-3,9276123
2,9205322
-1,5106201
-2,1148682
-5,8410645
-1,2084961
0,40283203
0,40283203
7,4523926
1,3092041
3,9276123
-2,7191162
8,660889
7,4523926
6,1431885
8,258057
16,012573
22,155762
26,687622
30,81665
24,673462
26,083374
14,199829
4,3304443
-5,7403564
-7,4523926
-13,796997
-23,162842
-23,968506
-26,687622
-34,94568
-51,965332
-42,90161
-33,032227
-30,010986
-25,177002
-19,033813
-20,040894
-15,307617
-2,5177002
10,272217
15,307617
19,033813
12,789917
8,258057
0,50354004
0,50354004
3,7261963
8,358765
13,192749
13,092041
15,509033
13,192749
12,689209
9,466553
1,9134521
2,8198242
1,6113281
9,970093
3,3233643
-5,5389404
-14,703369
-17,321777
-9,265137
4,8339844
28,500366
14,904785
7,9559326
16,71753
14,703369
5,3375244
10,775757
7,1502686
7,1502686
4,6325684
10,272217
10,876465
9,567261
9,265137
10,876465
7,5531006
6,8481445
0,70495605
3,5247803
0,80566406
-2,5177002
2,6184082
2,5177002
0,9063721
-2,2155762
-1,9134521
-7,9559326
-7,8552246
-11,178589
-9,667969
-5,6396484
4,1290283
4,3304443
-0,9063721
-8,258057
-10,070801
-14,199829
10,977173
19,033813
17,623901
9,466553
5,2368164
6,5460205
2,1148682
-1,5106201
-7,7545166
-4,6325684
-4,3304443
-6,0424805
-1,6113281
3,8269043
4,5318604
6,5460205
-3,8269043
15,307617
7,5531006
13,494873
7,1502686
-3,4240723
-4,5318604
-9,164429
-12,084961
-15,206909
-7,9559326
-8,963013
-2,2155762
-1,5106201
-9,466553
-7,7545166
-2,1148682
-5,0354004
-5,5389404
-0,10070801
3,4240723
5,1361084
10,473633
6,6467285
-6,4453125
-9,063721
-8,358765
-11,581421
-6,2438965
-5,8410645
-13,897705
-20,74585
-17,321777
-22,457886
-16,616821
-17,321777
-20,645142
-26,78833
-35,751343
-40,48462
-17,523193
-15,911865
-8,258057
-0,9063721
11,984253
9,466553
8,157349
11,581421
16,71753
19,436646
2,9205322
8,862305
0,20141602
11,782837
2,5177002
-1,0070801
-4,0283203
-0,9063721
2,5177002
7,7545166
6,7474365
9,768677
3,7261963
-2,1148682
-0,20141602
-3,7261963
-2,8198242
-6,2438965
-7,1502686
-5,2368164
-8,660889
-13,494873
-15,005493
-10,171509
-7,9559326
-2,9205322
-9,567261
-5,9417725
-9,365845
-6,7474365
-9,667969
-6,0424805
-17,623901
-21,652222
-15,911865
-22,558594
-26,687622
-15,811157
-7,5531006
-0,60424805
-7,3516846
-7,2509766
-8,660889
-10,372925
0
3,2226562
0,50354004
5,7403564
-0,20141602
-0,50354004
-0,20141602
2,5177002
-1,3092041
14,501953
5,4382324
4,1290283
1,1077881
3,6254883
-0,9063721
2,1148682
-2,5177002
-1,3092041
2,0141602
-3,8269043
-10,372925
-0,30212402
-0,50354004
0,10070801
3,3233643
8,761597
5,7403564
8,761597
1,1077881
3,7261963
0,70495605
-0,30212402
1,8127441
-0,50354004
0,10070801
-3,7261963
-1,8127441
-4,6325684
4,5318604
5,9417725
9,768677
3,7261963
-3,7261963
-4,1290283
-11,480713
-16,818237
-17,422485
-14,099121
-12,387085
-7,3516846
-6,4453125
-5,9417725
-6,4453125
-0,70495605
-6,3446045
0,9063721
-0,9063721
-0,9063721
6,0424805
6,2438965
9,869385
4,5318604
-4,9346924
-4,6325684
-2,9205322
-2,0141602
-0,40283203
3,7261963
5,8410645
0,10070801
5,2368164
8,056641
0,30212402
-6,3446045
-7,3516846
-13,394165
-15,206909
-12,286377
-1,7120361
7,5531006
11,178589
14,703369
10,876465
1,7120361
8,157349
7,7545166
-0,9063721
-10,977173
-10,675049
-4,8339844
-10,272217
-9,667969
-0,70495605
10,372925
11,380005
8,963013
8,358765
2,1148682
-1,4099121
-4,2297363
-2,5177002
-2,3162842
-4,7332764
-0,9063721
9,869385
15,206909
10,977173
-0,30212402
-10,876465
-19,839478
-18,73169
-24,572754
-22,961426
-19,638062
-16,113281
-7,3516846
-3,5247803
-2,7191162
5,8410645
9,768677
11,782837
7,3516846
-0,80566406
5,3375244
-1,1077881
1,9134521
4,4311523
-0,30212402
1,8127441
-1,7120361
-7,1502686
-7,7545166
-7,9559326
0
-2,3162842
-1,9134521
-1,4099121
-0,70495605
5,4382324
4,7332764
2,1148682
6,6467285
4,4311523
-5,5389404
8,358765
7,0495605
5,1361084
-2,7191162
4,5318604
-0,80566406
2,5177002
7,2509766
5,3375244
-4,0283203
-9,567261
-3,6254883
-16,314697
-13,394165
-13,796997
-16,012573
-10,574341
-6,1431885
-3,6254883
-10,876465
-8,358765
-1,8127441
-10,372925
-16,415405
-19,335938
-7,6538086
-9,164429
-7,3516846
1,4099121
-3,1219482
-5,2368164
-2,2155762
4,2297363
3,7261963
3,2226562
3,4240723
5,5389404
9,365845
6,1431885
10,675049
5,0354004
25,881958
11,077881
0,80566406
-8,459473
-15,408325
-14,199829
-9,164429
-6,7474365
-7,9559326
0,50354004
4,6325684
10,977173
16,012573
21,450806
8,459473
8,963013
8,459473
5,7403564
1,2084961
3,2226562
-0,50354004
-10,977173
-13,897705
-11,480713
-10,272217
-17,019653
-7,5531006
5,7403564
7,1502686
0,70495605
-3,3233643
-6,3446045
-10,675049
-6,5460205
-11,883545
-11,682129
-12,789917
-10,876465
-9,265137
-7,9559326
-5,4382324
-9,365845
-7,5531006
-7,1502686
-13,293457
-14,703369
-15,307617
-11,480713
-8,660889
-10,775757
4,6325684
-14,300537
-13,998413
-23,666382
-10,070801
-6,0424805
-11,682129
-6,7474365
-7,2509766
-3,5247803
-4,5318604
-0,60424805
0,10070801
15,005493
27,694702
34,34143
31,32019
36,254883
36,557007
29,80957
24,673462
12,689209
12,286377
8,258057
6,6467285
-15,609741
-21,450806
-17,523193
-11,279297
-6,3446045
-7,9559326
-13,394165
-8,660889
-12,185669
-24,673462
-20,74585
-28,601074
-20,74585
-13,595581
-13,796997
-15,408325
-16,616821
-12,689209
-7,8552246
-4,1290283
-10,372925
-5,8410645
0,9063721
2,5177002
-5,9417725
-9,567261
-5,8410645
-4,1290283
-2,1148682
-8,358765
-5,1361084
-4,5318604
-6,3446045
-12,185669
-3,6254883
-1,9134521
-2,2155762
-2,5177002
-5,8410645
2,4169922
-7,3516846
-4,7332764
-6,3446045
-4,1290283
-2,8198242
-7,3516846
-6,4453125
-0,50354004
-5,6396484
-3,6254883
-8,157349
0,70495605
-7,6538086
-4,4311523
3,9276123
-0,20141602
3,6254883
-0,30212402
-0,40283203
6,4453125
-0,20141602
-4,5318604
-3,3233643
-2,5177002
0,9063721
-1,3092041
-6,1431885
-1,9134521
2,9205322
3,2226562
4,7332764
6,0424805
6,4453125
-6,7474365
-0,70495605
-2,6184082
-4,2297363
-0,40283203
3,4240723
-1,9134521
-0,10070801
4,3304443
-1,4099121
-2,0141602
-2,5177002
2,8198242
5,3375244
3,5247803
6,8481445
5,3375244
4,4311523
6,4453125
-0,30212402
-1,4099121
-8,963013
-9,667969
-6,5460205
-5,7403564
-11,480713
-6,0424805
-6,7474365
-3,9276123
-4,2297363
-6,7474365
-1,4099121
-5,9417725
-1,9134521
-2,1148682
4,2297363
2,1148682
0,70495605
3,7261963
5,3375244
-0,9063721
0,80566406
-4,4311523
7,1502686
-5,7403564
-4,1290283
6,9488525
0,60424805
0,10070801
1,3092041
1,6113281
-11,077881
-1,4099121
-7,5531006
-1,1077881
-6,5460205
-0,10070801
-13,998413
-1,9134521
-0,70495605
-4,3304443
-1,3092041
6,6467285
11,984253
-7,5531006
0,60424805
-3,3233643
-7,6538086
0,9063721
3,0212402
6,2438965
4,9346924
-0,70495605
3,8269043
-3,4240723
0,10070801
0,50354004
-2,5177002
-7,3516846
-12,387085
-6,0424805
-12,387085
-15,106201
-20,544434
-12,588501
-9,667969
-10,070801
-7,9559326
-8,358765
-8,056641
-8,560181
1,9134521
13,494873
-1,3092041
2,1148682
-0,9063721
8,660889
6,9488525
1,9134521
-1,2084961
-2,9205322
1,8127441
-2,8198242
-2,7191162
-3,6254883
-4,4311523
-1,3092041
-8,660889
0,70495605
4,6325684
0,70495605
4,3304443
-5,3375244
-4,3304443
-11,178589
-9,667969
-11,480713
-17,22107
-11,380005
-9,970093
-1,9134521
-2,5177002
4,7332764
7,1502686
3,9276123
-0,10070801
0,80566406
-2,7191162
-1,2084961
1,8127441
7,5531006
3,0212402
4,4311523
-13,796997
-10,372925
-13,998413
-18,832397
-19,638062
-7,1502686
-3,7261963
-3,7261963
1,0070801
3,7261963
11,279297
13,696289
14,804077
0,70495605
-2,2155762
-6,9488525
-7,7545166
-7,8552246
-14,804077
-11,883545
-8,963013
-14,401245
-15,206909
-9,466553
-11,178589
-9,567261
-6,7474365
-3,6254883
-4,1290283
-5,2368164
-1,4099121
1,1077881
1,1077881
-4,0283203
-2,6184082
3,2226562
-1,8127441
-0,20141602
-4,1290283
-6,2438965
-0,60424805
9,265137
8,358765
5,3375244
0,70495605
3,3233643
-8,459473
-0,30212402
3,6254883
2,1148682
-1,6113281
3,0212402
-0,60424805
-2,2155762
2,9205322
-3,2226562
-11,279297
-13,998413
-10,675049
-15,106201
-10,171509
-2,5177002
0,50354004
10,574341
14,401245
16,113281
14,300537
11,581421
14,904785
13,092041
1,0070801
0,70495605
-11,581421
-4,7332764
-15,408325
-26,989746
-23,162842
-23,666382
-24,77417
-25,076294
-15,811157
-19,638062
-10,372925
-7,3516846
-3,2226562
-4,4311523
-0,80566406
-0,20141602
1,1077881
-6,4453125
-3,0212402
-4,3304443
-5,2368164
5,5389404
0,60424805
-1,5106201
6,1431885
3,0212402
1,7120361
-5,7403564
11,077881
0,30212402
3,2226562
-5,2368164
1,2084961
3,6254883
4,0283203
4,5318604
3,0212402
-0,30212402
-7,5531006
-11,782837
-2,5177002
-6,4453125
-3,2226562
-2,9205322
-8,258057
5,2368164
-5,5389404
-3,3233643
-7,1502686
-4,2297363
-9,970093
-4,1290283
-8,358765
-1,3092041
-5,3375244
-5,3375244
8,459473
-2,3162842
3,2226562
2,1148682
2,9205322
3,2226562
-2,9205322
3,5247803
1,4099121
-1,6113281
6,5460205
7,1502686
-0,50354004
-0,10070801
-0,9063721
-2,5177002
-1,8127441
-5,7403564
-7,1502686
-7,1502686
-8,761597
-10,574341
-14,300537
-7,2509766
-6,5460205
-11,883545
-6,3446045
0
1,9134521
-5,5389404
2,9205322
-4,5318604
-2,9205322
-1,5106201
-2,5177002
-4,0283203
-3,5247803
-0,50354004
0,70495605
0,70495605
6,8481445
-0,9063721
-3,8269043
2,5177002
11,581421
8,157349
16,012573
12,689209
-5,7403564
-2,3162842
2,9205322
3,3233643
4,1290283
-1,5106201
0,80566406
-4,2297363
-4,7332764
-5,3375244
-3,7261963
-3,8269043
2,9205322
1,7120361
-0,20141602
4,3304443
-0,9063721
-3,5247803
-9,164429
-2,7191162
-3,5247803
-0,30212402
-7,8552246
-7,5531006
-10,372925
-4,7332764
-12,185669
5,9417725
-5,9417725
-1,5106201
-5,8410645
-2,3162842
-3,5247803
-4,3304443
-3,4240723
-10,473633
-7,3516846
-1,9134521
-2,5177002
-2,1148682
-5,9417725
-4,3304443
0,10070801
-2,5177002
-5,1361084
-0,10070801
2,0141602
-0,9063721
-3,1219482
-3,5247803
-1,0070801
-3,4240723
-1,8127441
8,560181
2,9205322
11,782837
9,466553
3,9276123
-0,20141602
-4,6325684
-4,2297363
-0,70495605
3,2226562
4,3304443
9,970093
9,970093
2,3162842
3,8269043
-8,560181
-9,970093
-10,070801
-2,9205322
-4,5318604
2,5177002
5,5389404
-0,10070801
-1,3092041
3,0212402
4,3304443
-3,3233643
-4,7332764
-0,40283203
-4,7332764
-8,761597
-11,279297
-14,804077
-18,328857
-22,357178
-10,473633
-8,660889
-8,258057
-7,0495605
-8,358765
-8,358765
-11,480713
-12,387085
-11,782837
-15,710449
-5,8410645
-2,2155762
-1,9134521
-3,8269043
-1,1077881
-3,1219482
-0,30212402
-0,60424805
-4,1290283
-8,358765
-1,9134521
-9,466553
-5,1361084
0,50354004
2,0141602
6,7474365
8,761597
5,3375244
4,5318604
3,5247803
-4,1290283
-3,5247803
-2,7191162
-14,904785
-13,897705
-17,623901
-10,775757
-10,272217
-9,869385
-7,3516846
-1,7120361
-7,8552246
-4,1290283
14,199829
14,401245
13,192749
-9,970093
-6,6467285
-7,7545166
-7,3516846
-7,1502686
-1,8127441
-1,1077881
0,20141602
-1,1077881
2,0141602
2,7191162
3,3233643
4,7332764
6,1431885
-4,1290283
-1,7120361
1,8127441
-1,7120361
-2,3162842
0,80566406
1,0070801
4,3304443
8,056641
6,7474365
4,9346924
-3,2226562
-1,4099121
-8,358765
-10,574341
-13,092041
-13,796997
-11,581421
-20,645142
-17,422485
-14,401245
-9,667969
-5,9417725
-0,60424805
19,033813
5,3375244
25,579834
30,212402
18,026733
15,307617
-0,50354004
11,883545
6,4453125
8,761597
5,7403564
3,4240723
6,2438965
3,5247803
0,10070801
3,3233643
2,3162842
2,2155762
3,3233643
-3,1219482
-8,660889
-6,7474365
1,9134521
-10,574341
-9,466553
-10,977173
-8,963013
-9,567261
-10,574341
-3,2226562
-2,1148682
-4,9346924
1,6113281
-0,10070801
0,50354004
-9,063721
-1,9134521
-10,272217
-5,4382324
-11,782837
-3,6254883
-6,9488525
-0,9063721
-4,1290283
-1,5106201
2,5177002
2,9205322
-1,5106201
-4,5318604
-1,1077881
3,2226562
-2,3162842
-7,3516846
-0,30212402
2,6184082
-5,5389404
-7,2509766
-3,8269043
-2,4169922
-6,6467285
3,7261963
4,1290283
5,7403564
1,9134521
-3,9276123
3,9276123
4,2297363
-1,0070801
-0,50354004
4,0283203
6,8481445
-5,9417725
13,494873
-4,7332764
-2,7191162
-5,1361084
-1,1077881
2,0141602
3,2226562
-5,3375244
1,7120361
-1,4099121
-8,358765
-2,1148682
-6,5460205
0,40283203
1,9134521
1,1077881
-1,3092041
4,2297363
-4,6325684
-10,775757
-9,567261
-10,977173
-6,7474365
-7,9559326
-6,5460205
-6,6467285
-9,164429
-14,199829
-20,74585
-19,23523
-29,608154
-25,881958
-17,321777
-13,696289
-14,401245
-7,7545166
-4,5318604
1,9134521
1,8127441
2,2155762
-2,0141602
5,8410645
4,6325684
5,3375244
8,258057
-3,6254883
-1,8127441
8,459473
6,9488525
5,0354004
12,890625
15,005493
21,148682
17,422485
9,768677
-2,9205322
-9,265137
-15,307617
-19,73877
-20,040894
-21,24939
-12,487793
-12,991333
-1,1077881
-6,3446045
-0,70495605
-2,5177002
-0,50354004
0,50354004
-5,3375244
-8,358765
-12,789917
-13,696289
-10,675049
-11,279297
-1,4099121
-0,30212402
-2,7191162
-5,4382324
-3,7261963
-2,6184082
-5,5389404
-2,3162842
-3,6254883
-16,113281
-14,401245
-7,0495605
0,20141602
-0,20141602
6,5460205
-0,50354004
-4,9346924
0,80566406
5,5389404
5,2368164
1,9134521
-3,8269043
-2,5177002
0,10070801
6,1431885
7,2509766
1,9134521
3,3233643
4,8339844
-0,40283203
3,6254883
5,8410645
-0,9063721
1,7120361
2,5177002
4,1290283
4,3304443
6,9488525
3,9276123
2,7191162
-3,8269043
-9,567261
-4,0283203
-2,4169922
-2,9205322
2,4169922
1,3092041
5,9417725
1,1077881
-0,9063721
-2,3162842
-0,70495605
-6,4453125
-10,574341
-17,321777
-8,560181
-10,171509
-3,7261963
-5,4382324
-6,8481445
-8,761597
-12,689209
-3,4240723
-5,6396484
-10,977173
-8,056641
-4,4311523
-5,6396484
-2,7191162
-4,3304443
2,1148682
-6,3446045
-1,9134521
3,9276123
-0,10070801
-2,7191162
-1,9134521
-1,7120361
-3,9276123
-3,9276123
3,6254883
4,8339844
-4,3304443
6,8481445
1,2084961
5,5389404
-6,4453125
-2,0141602
-4,3304443
-9,466553
-4,1290283
-0,10070801
5,5389404
3,3233643
-0,70495605
-8,660889
-8,157349
-8,560181
-13,696289
-5,9417725
0,70495605
-6,2438965
-1,3092041
-1,8127441
2,0141602
-4,6325684
-7,8552246
-10,574341
-15,408325
-10,977173
-8,761597
-5,8410645
-5,5389404
-4,0283203
-0,70495605
-2,2155762
-3,9276123
-6,9488525
3,5247803
4,2297363
6,9488525
14,401245
3,2226562
4,8339844
-3,7261963
-5,4382324
-1,3092041
-3,7261963
0,80566406
-18,026733
-7,5531006
-7,1502686
-5,1361084
-5,5389404
7,0495605
-5,2368164
4,7332764
-4,1290283
-0,80566406
1,9134521
5,2368164
3,3233643
-6,9488525
-12,185669
-19,537354
-16,516113
-21,954346
-18,328857
-2,9205322
-12,185669
-5,5389404
-9,265137
-7,1502686
-4,7332764
-7,8552246
-11,682129
-16,818237
-15,005493
-12,084961
-11,279297
-4,2297363
-5,5389404
-3,5247803
-2,7191162
-0,80566406
-12,588501
-8,459473
-4,1290283
0,30212402
7,7545166
2,1148682
-4,1290283
-3,5247803
-0,9063721
-2,4169922
-2,9205322
-4,5318604
-3,5247803
-0,10070801
-1,1077881
0,40283203
5,4382324
1,0070801
1,3092041
-1,1077881
2,4169922
0,70495605
2,3162842
9,063721
0,9063721
-0,30212402
-3,4240723
-12,588501
1,2084961
-0,70495605
0,9063721
-10,574341
1,9134521
4,2297363
0,9063721
-1,3092041
6,1431885
4,0283203
6,0424805
2,5177002
5,0354004
1,5106201
-8,963013
-6,9488525
-7,3516846
-5,7403564
-5,4382324
-16,415405
-10,775757
-13,998413
-17,926025
-7,3516846
-2,4169922
-1,7120361
-5,6396484
-1,4099121
0,60424805
-2,7191162
-4,0283203
-1,2084961
-7,3516846
0,9063721
-11,782837
-18,026733
-9,667969
-9,164429
-4,7332764
-4,1290283
2,8198242
-0,10070801
5,3375244
0,50354004
-3,5247803
-6,8481445
-1,5106201
5,3375244
2,3162842
2,1148682
-2,7191162
-0,30212402
-6,1431885
-0,30212402
-2,1148682
-1,0070801
-5,2368164
-5,1361084
-3,5247803
-5,6396484
-5,1361084
-2,7191162
-1,4099121
-0,80566406
-4,4311523
-2,7191162
1,5106201
1,7120361
-1,4099121
-1,3092041
-5,1361084
-5,1361084
-6,0424805
-1,9134521
-4,5318604
-9,063721
-9,063721
-11,984253
-5,2368164
-2,7191162
-1,0070801
-0,10070801
-4,8339844
6,6467285
-0,40283203
-5,9417725
0,30212402
-2,3162842
-2,3162842
-3,7261963
-0,40283203
3,7261963
1,9134521
1,8127441
-5,1361084
7,0495605
2,5177002
3,4240723
-0,70495605
-4,1290283
-1,2084961
-1,4099121
-0,60424805
-5,1361084
-3,1219482
-6,7474365
-2,7191162
-2,3162842
0,20141602
6,6467285
2,8198242
-7,8552246
-7,6538086
-15,408325
-11,883545
-16,012573
-17,019653
-11,077881
-8,358765
-6,5460205
-1,0070801
-5,8410645
3,5247803
7,1502686
4,9346924
9,667969
-1,2084961
-2,7191162
1,3092041
5,3375244
5,9417725
1,0070801
1,1077881
-3,2226562
2,8198242
-2,3162842
1,3092041
2,0141602
-2,9205322
8,157349
-9,667969
-6,6467285
-2,5177002
-3,1219482
-0,30212402
-0,10070801
-5,9417725
-7,5531006
-13,394165
-15,005493
-11,984253
-10,574341
-12,689209
-14,199829
-12,487793
-7,0495605
-9,265137
-5,9417725
-4,1290283
-5,3375244
-13,092041
-7,6538086
-0,40283203
1,1077881
8,459473
0,60424805
-4,7332764
-0,70495605
-0,9063721
-1,5106201
-0,50354004
-7,3516846
-4,7332764
0,40283203
-3,5247803
0,50354004
-2,5177002
2,1148682
-1,4099121
3,9276123
-2,6184082
-2,8198242
-6,0424805
-0,9063721
-0,9063721
-5,1361084
-7,3516846
-8,963013
-8,358765
-22,659302
-15,408325
-14,501953
-12,487793
-7,4523926
-7,5531006
3,2226562
-1,9134521
3,0212402
0,30212402
-2,1148682
1,7120361
1,8127441
-4,2297363
-13,293457
-12,387085
-10,675049
-8,963013
-7,9559326
-6,8481445
-3,6254883
0,50354004
2,5177002
3,3233643
3,2226562
-2,6184082
4,5318604
0,40283203
1,7120361
2,1148682
-5,3375244
-4,4311523
5,4382324
5,2368164
1,9134521
3,5247803
-2,1148682
-11,782837
-10,171509
-13,192749
-9,365845
-7,3516846
-11,883545
-3,1219482
-8,157349
-0,10070801
7,3516846
6,7474365
2,9205322
1,3092041
-3,4240723
0,50354004
4,9346924
1,7120361
-1,2084961
-4,5318604
3,7261963
-1,8127441
-0,30212402
-0,20141602
-4,7332764
-3,7261963
-7,1502686
-7,0495605
-8,963013
-5,1361084
4,5318604
1,0070801
-3,1219482
-2,6184082
-1,1077881
-3,4240723
-1,3092041
0,60424805
3,8269043
1,5106201
-3,2226562
7,4523926
4,0283203
8,963013
4,5318604
4,3304443
2,0141602
4,9346924
4,1290283
-6,7474365
3,5247803
-5,6396484
-7,4523926
-5,8410645
-5,0354004
-1,4099121
0,10070801
2,7191162
9,063721
7,5531006
12,487793
13,696289
16,113281
13,192749
6,5460205
3,1219482
-1,4099121
-7,7545166
-8,258057
-13,595581
-14,904785
-11,279297
-15,206909
-15,609741
-19,436646
-18,026733
-12,084961
-12,689209
-8,963013
-6,7474365
-9,567261
-9,063721
-6,2438965
-0,60424805
2,6184082
-1,9134521
3,7261963
3,7261963
1,0070801
4,1290283
0,50354004
2,1148682
4,5318604
5,5389404
1,3092041
-5,0354004
-2,3162842
-0,70495605
-2,6184082
-2,1148682
0,30212402
-3,9276123
2,8198242
-4,0283203
-7,5531006
-2,9205322
-3,5247803
-3,7261963
0,80566406
4,6325684
-2,2155762
-0,30212402
-5,9417725
0,70495605
6,9488525
2,7191162
6,2438965
0,10070801
-10,775757
-13,192749
-9,164429
-10,070801
-13,092041
-12,689209
-8,660889
-12,890625
-8,459473
-13,494873
-9,667969
-6,8481445
-7,0495605
-4,0283203
2,7191162
2,5177002
-6,9488525
-12,387085
-7,5531006
1,1077881
-1,1077881
-2,8198242
2,5177002
-0,80566406
2,1148682
2,9205322
4,3304443
3,8269043
-4,3304443
3,5247803
-7,5531006
-1,7120361
-1,5106201
-4,1290283
-7,0495605
-7,2509766
-5,5389404
-3,5247803
-10,272217
-13,696289
-10,473633
-7,3516846
-0,40283203
-9,970093
-10,372925
-6,7474365
-2,1148682
2,1148682
2,6184082
2,5177002
2,5177002
-8,560181
-1,9134521
-6,7474365
-10,473633
-1,3092041
-3,8269043
-3,6254883
-0,9063721
-7,9559326
-5,2368164
-3,8269043
2,0141602
4,6325684
0,70495605
-2,3162842
-2,5177002
-3,6254883
-0,70495605
-2,7191162
-1,9134521
-6,3446045
-10,070801
-5,8410645
-7,7545166
-9,667969
-6,3446045
-2,5177002
-7,5531006
-4,4311523
-2,0141602
-9,164429
-0,60424805
-1,3092041
5,3375244
-3,8269043
-4,5318604
-2,2155762
6,3446045
0,70495605
8,963013
1,2084961
-0,60424805
-3,5247803
-0,10070801
-0,9063721
0,9063721
6,4453125
7,8552246
0,10070801
3,7261963
2,9205322
-4,2297363
0,70495605
2,2155762
13,092041
17,019653
17,926025
13,595581
19,839478
14,099121
5,7403564
7,8552246
3,5247803
-0,60424805
2,6184082
2,3162842
1,1077881
-4,5318604
-16,818237
-14,401245
-14,804077
-21,853638
-13,595581
-19,335938
-22,76001
-31,622314
-21,148682
-19,73877
-19,436646
-6,7474365
-6,4453125
0,50354004
-5,1361084
-5,7403564
-0,10070801
0,70495605
4,5318604
4,5318604
12,588501
0,80566406
3,6254883
-4,2297363
-3,3233643
-5,6396484
-7,0495605
-3,9276123
-5,7403564
-9,365845
-2,6184082
-0,10070801
-1,6113281
-3,1219482
-5,7403564
-5,3375244
-2,3162842
-0,50354004
-8,963013
-5,3375244
-9,567261
-8,862305
-11,883545
1,9134521
-6,9488525
-4,2297363
-1,7120361
-3,6254883
-6,7474365
2,9205322
-5,3375244
0,9063721
-3,1219482
-2,9205322
-2,7191162
-1,0070801
-2,3162842
5,7403564
-5,7403564
-2,3162842
-5,6396484
-5,3375244
-8,157349
-4,7332764
-0,30212402
-3,6254883
-6,7474365
-5,8410645
-1,3092041
-5,2368164
-1,6113281
-3,3233643
-2,7191162
-1,4099121
0,20141602
-0,9063721
-4,2297363
1,0070801
6,2438965
3,9276123
-0,30212402
-2,3162842
-5,1361084
-5,1361084
-2,3162842
-0,9063721
-2,7191162
-1,9134521
1,2084961
0,70495605
-1,8127441
1,5106201
0,9063721
-5,1361084
0,30212402
1,2084961
6,4453125
0,10070801
-0,30212402
1,3092041
0,50354004
5,9417725
2,3162842
3,4240723
1,0070801
-5,7403564
4,7332764
-0,70495605
-1,2084961
0,80566406
-7,2509766
-0,50354004
-10,372925
-13,394165
-13,998413
-9,667969
-9,667969
-5,5389404
-2,5177002
-2,2155762
-2,2155762
-5,6396484
-0,30212402
-4,7332764
-8,761597
-4,4311523
-7,5531006
2,9205322
1,3092041
0,70495605
3,2226562
5,8410645
3,5247803
4,1290283
0,60424805
-3,4240723
0
-1,1077881
-0,80566406
1,1077881
6,5460205
2,9205322
-4,3304443
-5,9417725
-7,3516846
-10,977173
-6,9488525
-10,272217
-1,1077881
-3,8269043
-12,084961
-19,23523
-5,3375244
-5,1361084
-3,7261963
-8,358765
-2,1148682
-0,10070801
-0,80566406
-4,1290283
-3,5247803
-7,7545166
-8,963013
-2,5177002
-11,581421
-7,5531006
-7,9559326
-6,5460205
-4,0283203
-5,1361084
-8,258057
-7,0495605
-4,4311523
-5,1361084
-1,9134521
-3,5247803
-3,5247803
-6,5460205
-3,1219482
-1,7120361
0,30212402
-2,7191162
1,2084961
-1,9134521
2,7191162
5,9417725
0,9063721
1,5106201
1,9134521
0,10070801
-4,1290283
-9,567261
-0,80566406
-1,9134521
-1,4099121
-3,9276123
-2,5177002
-3,6254883
1,3092041
4,6325684
12,286377
3,9276123
6,0424805
7,2509766
0,10070801
0,10070801
8,459473
4,3304443
-3,7261963
-2,4169922
-6,6467285
-10,775757
-14,804077
-11,178589
-8,258057
-8,258057
-7,8552246
-7,9559326
-6,9488525
-12,084961
-11,883545
-12,084961
-8,761597
-3,1219482
1,8127441
-3,0212402
-2,9205322
-1,9134521
-7,9559326
-6,7474365
-12,185669
-3,5247803
-10,775757
-19,23523
-14,804077
-11,077881
-5,6396484
-4,1290283
3,4240723
-0,60424805
0,9063721
-2,5177002
-4,1290283
-1,3092041
2,6184082
-7,5531006
1,3092041
2,3162842
1,3092041
3,5247803
-2,0141602
-2,5177002
1,1077881
0,30212402
-4,7332764
-2,5177002
-3,2226562
-0,70495605
-4,2297363
-2,5177002
-1,1077881
2,4169922
-3,1219482
-1,8127441
-5,5389404
-7,3516846
-11,077881
-5,8410645
-11,984253
-6,3446045
-9,365845
-0,9063721
-3,1219482
-0,10070801
-3,5247803
-1,5106201
-4,3304443
-5,1361084
-7,8552246
-7,2509766
-10,574341
-2,1148682
-3,7261963
-8,560181
-5,7403564
-2,5177002
-10,070801
-10,372925
-5,5389404
1,1077881
-0,30212402
-13,796997
7,1502686
0,9063721
-6,7474365
-10,775757
3,7261963
-2,9205322
-4,2297363
0,50354004
1,2084961
-0,20141602
-7,2509766
-4,5318604
-8,459473
-3,6254883
-7,5531006
-9,365845
-13,293457
-3,7261963
-9,768677
-8,862305
-11,279297
-9,667969
-7,1502686
-11,279297
-4,6325684
-2,6184082
-3,6254883
-2,7191162
3,9276123
-0,80566406
-7,3516846
3,0212402
5,2368164
4,9346924
4,1290283
16,012573
8,258057
14,602661
7,0495605
8,459473
7,3516846
-0,10070801
-5,3375244
-13,897705
-11,279297
-8,862305
-4,8339844
-3,9276123
0,10070801
-6,5460205
-4,0283203
5,0354004
0,10070801
-4,6325684
-0,30212402
-5,7403564
-2,5177002
-8,157349
-13,696289
-9,970093
-3,5247803
-2,5177002
-1,7120361
-8,963013
-4,1290283
-4,9346924
-5,0354004
-2,7191162
-10,574341
-9,970093
-3,2226562
-4,0283203
-0,20141602
