-1,5106201 | -87,716675
-5,5389404 | -109,06677
-6,3446045 | -101,51367
-1,5106201 | -67,07153
-0,10070801 | -51,5625
-4,5318604 | -13,696289
-10,473633 | 72,71118
-7,7545166 | 207,35779
-11,984253 | 379,56848
-7,7545166 | 487,12463
-9,063721 | 508,47473
-10,070801 | 477,65808
-16,314697 | 412,3993
-6,1431885 | 314,91394
-2,6184082 | 242,00134
-6,3446045 | 177,3468
-7,8552246 | 120,64819
-8,963013 | 76,23596
-2,7191162 | 58,914185
-2,9205322 | 44,815063
-5,3375244 | 47,836304
-5,6396484 | 52,670288
-4,1290283 | 55,288696
0,70495605 | 56,5979
5,9417725 | 59,014893
-8,258057 | 73,41614
2,5177002 | 67,37366
-7,3516846 | 35,247803
-3,5247803 | 41,4917
-1,6113281 | 80,76782
-0,40283203 | 113,69934
0,80566406 | 121,554565
-2,5177002 | 87,11243
-2,8198242 | 44,41223
-1,2084961 | 15,005493
-1,6113281 | -12,588501
-1,8127441 | -23,464966
-3,4240723 | -35,247803
3,0212402 | -37,161255
-0,10070801 | -48,641968
-0,30212402 | -59,61914
-8,258057 | -75,4303
-6,5460205 | -77,74658
-8,560181 | -71,502686
-5,7403564 | -74,82605
-6,2438965 | -63,446045
-7,1502686 | -44,311523
-7,7545166 | -10,372925
-3,9276123 | -3,7261963
-0,80566406 | -10,775757
2,6184082 | -10,070801
6,9488525 | -9,667969
0,70495605 | -7,5531006
0,70495605 | -4,3304443
-0,30212402 | 24,874878
-5,6396484 | 44,0094
-6,0424805 | 25,881958
-0,30212402 | 2,8198242
-5,4382324 | -6,1431885
-0,20141602 | -6,9488525
4,4311523 | -0,20141602
1,9134521 | -0,30212402
0,9063721 | -15,206909
2,2155762 | -41,89453
2,7191162 | -45,822144
0,20141602 | -49,749756
-0,70495605 | -36,95984
0,9063721 | -44,110107
-5,2368164 | -51,864624
3,4240723 | -58,71277
-5,1361084 | -62,036133
-1,9134521 | -73,013306
-0,20141602 | -83,78906
-0,10070801 | -85,40039
-3,3233643 | -84,39331
-3,1219482 | -73,61755
-2,9205322 | -32,93152
-6,2438965 | -5,6396484
2,7191162 | 3,6254883
-1,8127441 | -4,8339844
-3,8269043 | -11,581421
-0,9063721 | -33,43506
-4,1290283 | -48,641968
0,30212402 | -63,848877
2,1148682 | -66,970825
0,40283203 | -75,027466
2,3162842 | -70,09277
-2,8198242 | -69,488525
-3,2226562 | -51,663208
-0,60424805 | -32,83081
-2,3162842 | -23,464966
3,2226562 | -19,033813
-7,0495605 | -29,30603
-4,3304443 | -28,903198
-9,466553 | -21,450806
-5,9417725 | 9,265137
-6,0424805 | 41,89453
0,50354004 | 47,131348
7,1502686 | 52,468872
-8,459473 | 52,166748
1,1077881 | 39,678955
-0,20141602 | 32,83081
-5,7403564 | 16,918945
-7,2509766 | 2,5177002
-4,9346924 | -9,567261
-0,10070801 | -30,917358
4,7332764 | -49,850464
1,3092041 | -64,453125
-1,3092041 | -86,709595
2,9205322 | -111,68518
1,1077881 | -131,12183
1,8127441 | -132,43103
1,6113281 | -142,70325
0,50354004 | -147,73865
0,50354004 | -150,9613
-5,8410645 | -151,16272
-8,963013 | -165,76538
-0,30212402 | -170,09583
-3,7261963 | -147,03369
-1,1077881 | -34,34143
-7,4523926 | 188,32397
-5,9417725 | 330,02014
-3,7261963 | 301,21765
-6,4453125 | 209,06982
-5,8410645 | 119,036865
-7,1502686 | 65,76233
-5,6396484 | 39,678955
-5,7403564 | 26,28479
-4,1290283 | 34,44214
-8,963013 | 27,896118
-3,5247803 | 34,039307
-2,3162842 | 32,93152
-7,0495605 | 38,671875
-7,2509766 | 36,254883
-4,1290283 | 49,246216
-0,20141602 | 60,72693
-0,60424805 | 58,61206
3,5247803 | 43,807983
2,3162842 | 29,205322
0,60424805 | 7,1502686
0,60424805 | -10,070801
-2,9205322 | -25,27771
3,9276123 | -29,30603
-1,2084961 | -29,30603
2,4169922 | -41,088867
2,3162842 | -57,10144
6,6467285 | -86,709595
-2,5177002 | -132,1289
-2,2155762 | -168,88733
1,1077881 | -178,95813
8,056641 | -201,91956
2,1148682 | -204,53796
0,50354004 | -210,17761
-0,30212402 | -197,3877
5,3375244 | -180,46875
0,60424805 | -119,4397
3,1219482 | -55,993652
1,7120361 | -14,703369
0,80566406 | 3,8269043
3,5247803 | -10,876465
5,6396484 | -22,659302
0,9063721 | -1,3092041
-1,2084961 | 56,09436
-0,70495605 | 90,93933
-4,0283203 | 164,85901
-2,9205322 | 259,72595
-1,7120361 | 267,17834
-2,9205322 | 218,8385
-6,0424805 | 183,79211
-10,574341 | 141,79688
-5,5389404 | 109,87244
-4,2297363 | 85,40039
-1,2084961 | 101,312256
-4,7332764 | 120,84961
-6,8481445 | 116,41846
-2,8198242 | 89,93225
-2,4169922 | 75,4303
-1,7120361 | 58,20923
-1,3092041 | 48,641968
-4,3304443 | 45,41931
-4,2297363 | 52,871704
0,20141602 | 50,05188
-1,3092041 | 47,03064
-10,473633 | 48,03772
-6,3446045 | 54,382324
-8,761597 | 44,613647
-10,272217 | 32,93152
-8,056641 | 6,9488525
-12,084961 | -15,609741
-7,8552246 | -31,219482
-1,7120361 | -32,730103
-6,0424805 | -24,673462
-7,3516846 | -25,076294
-12,387085 | -38,974
-7,1502686 | -72,30835
2,3162842 | -93,0542
-1,5106201 | -101,412964
-2,5177002 | -105,23987
-4,1290283 | -107,15332
-0,30212402 | -89,63013
-4,7332764 | -52,670288
-0,9063721 | -55,288696
5,2368164 | -62,841797
-4,3304443 | -40,686035
2,4169922 | -21,24939
-1,2084961 | -14,300537
-1,3092041 | -31,018066
-2,6184082 | -51,361084
15,307617 | -63,546753
1,8127441 | -83,184814
-2,7191162 | -81,7749
1,9134521 | -83,08411
-2,7191162 | -71,20056
0,70495605 | -69,1864
-3,0212402 | -63,14392
-0,20141602 | -51,05896
-2,3162842 | -41,39099
-0,30212402 | -21,652222
-0,10070801 | 8,862305
2,3162842 | 16,415405
3,7261963 | 20,74585
-7,1502686 | 20,24231
-4,9346924 | 37,96692
-0,10070801 | 21,853638
-5,9417725 | 3,8269043
-2,3162842 | -8,963013
-2,7191162 | -4,7332764
3,0212402 | 1,3092041
1,3092041 | -21,954346
4,3304443 | -62,338257
-3,1219482 | -108,462524
1,3092041 | -148,24219
-0,30212402 | -161,83777
3,0212402 | -152,57263
2,1148682 | -129,20837
-1,3092041 | -122,46094
-1,7120361 | -129,81262
4,8339844 | -130,8197
1,3092041 | -105,03845
0,50354004 | 23,666382
-2,9205322 | 142,90466
-10,372925 | 226,3916
-16,71753 | 300,21057
-13,696289 | 302,02332
-8,761597 | 247,33887
-11,782837 | 188,22327
-2,7191162 | 134,5459
-9,164429 | 105,441284
-6,2438965 | 98,794556
-3,9276123 | 96,8811
-8,862305 | 65,66162
-2,7191162 | 10,977173
-9,365845 | -28,601074
-3,8269043 | -36,557007
-7,2509766 | -23,464966
-10,272217 | -19,436646
-10,876465 | -23,565674
-6,9488525 | 6,1431885
-5,3375244 | 64,05029
-6,7474365 | 102,822876
-5,7403564 | 105,03845
0,80566406 | 89,93225
-4,4311523 | 68,984985
-9,265137 | 70,29419
-5,1361084 | 81,27136
-5,7403564 | 91,94641
-3,5247803 | 60,324097
-2,7191162 | 19,839478
-4,5318604 | -11,581421
-3,8269043 | -26,889038
3,9276123 | -1,1077881
-7,7545166 | -15,509033
-6,7474365 | -44,51294
-4,5318604 | -65,76233
-2,0141602 | -76,43738
-2,8198242 | -83,99048
5,1361084 | -81,06995
0,10070801 | -79,96216
1,1077881 | -78,652954
-0,60424805 | -86,00464
3,7261963 | -90,5365
3,3233643 | -88,0188
3,8269043 | -88,92517
3,1219482 | -91,64429
3,4240723 | -96,276855
0,50354004 | -83,38623
2,5177002 | -59,921265
-3,8269043 | 12,890625
-5,0354004 | 54,483032
-12,286377 | 56,799316
-11,883545 | 39,98108
0,30212402 | 38,269043
-6,9488525 | 23,464966
-7,9559326 | 28,198242
-5,1361084 | 23,867798
-8,761597 | 33,032227
-4,2297363 | 35,549927
-3,9276123 | 41,592407
-5,1361084 | 51,361084
-2,1148682 | 52,871704
7,6538086 | 41,99524
-6,6467285 | 33,737183
-1,9134521 | 26,687622
-4,1290283 | 18,22815
-6,3446045 | 14,804077
-6,1431885 | 11,984253
-0,40283203 | 10,070801
3,7261963 | 13,192749
2,9205322 | 9,466553
-5,1361084 | -7,9559326
-1,1077881 | -21,75293
-1,4099121 | -45,318604
-7,3516846 | -71,20056
-1,7120361 | -84,49402
-4,1290283 | -87,716675
-3,4240723 | -101,815796
-10,977173 | -114,90784
-0,10070801 | -95,5719
-4,2297363 | -85,702515
-1,1077881 | -81,87561
6,5460205 | -79,559326
-3,5247803 | -55,993652
-3,9276123 | -53,07312
-3,4240723 | -63,345337
0,60424805 | -41,793823
-3,7261963 | -4,5318604
-2,8198242 | 9,768677
2,0141602 | -0,60424805
-7,8552246 | -11,581421
-8,258057 | -20,443726
-10,272217 | -27,090454
-6,2438965 | -39,98108
1,9134521 | -55,892944
-2,5177002 | -51,663208
-6,5460205 | -33,233643
-8,862305 | -1,7120361
4,4311523 | 5,3375244
3,2226562 | -8,258057
-4,0283203 | -15,106201
0,50354004 | -27,896118
3,8269043 | -41,89453
3,2226562 | -42,700195
-1,4099121 | -36,557007
4,1290283 | -31,924438
1,2084961 | -18,026733
-10,775757 | 24,27063
-5,0354004 | 54,58374
-7,8552246 | 48,843384
-1,5106201 | 50,05188
-2,5177002 | 82,27844
-6,5460205 | 165,56396
8,761597 | 192,3523
-8,660889 | 157,60803
1,3092041 | 85,60181
3,2226562 | 34,94568
2,1148682 | 7,3516846
-6,3446045 | -10,372925
-0,10070801 | -16,415405
4,3304443 | -21,350098
0,70495605 | -18,630981
-2,6184082 | -11,984253
-7,3516846 | -19,436646
-4,4311523 | -38,067627
-11,380005 | -52,56958
-5,8410645 | -58,61206
1,8127441 | -51,159668
2,4169922 | -29,507446
-10,675049 | -30,81665
-6,9488525 | -56,09436
-1,7120361 | -64,75525
1,0070801 | -72,20764
-3,4240723 | -83,28552
-5,9417725 | -97,787476
-7,0495605 | -127,29492
-10,372925 | -146,02661
-2,5177002 | -168,4845
-3,0212402 | -202,22168
-6,1431885 | -217,83142
4,8339844 | -226,19019
4,8339844 | -208,56628
7,7545166 | -131,82678
3,6254883 | 15,811157
5,1361084 | 145,9259
2,1148682 | 205,44434
0,60424805 | 157,2052
3,8269043 | 87,31384
2,5177002 | 15,005493
0,9063721 | -21,24939
-1,5106201 | -37,36267
5,3375244 | -24,673462
-0,40283203 | -7,4523926
-0,9063721 | 5,9417725
0,80566406 | 33,737183
-4,8339844 | 60,928345
-2,2155762 | 77,041626
-2,7191162 | 75,83313
-4,5318604 | 77,84729
-4,8339844 | 105,74341
-5,7403564 | 124,77722
-18,832397 | 184,8999
-8,761597 | 224,67957
-4,5318604 | 216,72363
-10,372925 | 212,5946
-6,3446045 | 185,50415
-11,178589 | 172,81494
-9,063721 | 146,22803
0,30212402 | 132,43103
-2,4169922 | 125,88501
-0,50354004 | 118,63403
-2,1148682 | 98,291016
-9,265137 | 67,37366
3,9276123 | 38,87329
-0,80566406 | 9,265137
0,20141602 | 2,2155762
-1,3092041 | -2,0141602
-1,4099121 | -7,6538086
-3,5247803 | -33,9386
-5,9417725 | -34,039307
-5,8410645 | -1,5106201
-10,675049 | 1,4099121
-10,775757 | -2,5177002
-1,2084961 | 6,7474365
0,10070801 | 20,24231
-4,4311523 | 16,616821
-2,7191162 | -0,50354004
6,6467285 | -22,357178
5,2368164 | -25,479126
3,5247803 | -28,80249
-7,7545166 | -40,786743
-2,4169922 | -61,73401
-12,286377 | -61,532593
-6,6467285 | -74,42322
-2,4169922 | -100,808716
8,459473 | -124,072266
-2,5177002 | -136,66077
-2,4169922 | -137,66785
-2,2155762 | -110,476685
1,0070801 | -46,325684
5,4382324 | -14,703369
-3,9276123 | -20,443726
-3,4240723 | -4,2297363
-5,4382324 | 27,090454
-8,258057 | 17,019653
-2,7191162 | -32,125854
-5,5389404 | -68,984985
-8,963013 | -101,815796
-8,258057 | -108,462524
-5,9417725 | -119,036865
-3,1219482 | -122,36023
-9,970093 | -133,13599
-2,6184082 | -145,22095
-3,5247803 | -145,72449
-1,1077881 | -82,07703
-2,5177002 | 58,309937
-2,2155762 | 186,41052
-0,80566406 | 238,57727
-9,667969 | 221,45691
-6,3446045 | 189,73389
-16,314697 | 154,88892
-0,70495605 | 129,10767
-5,5389404 | 117,12341
-4,1290283 | 116,72058
-6,3446045 | 105,54199
-5,7403564 | 83,48694
-5,1361084 | 70,09277
-0,50354004 | 59,820557
-6,3446045 | 46,224976
-3,7261963 | 34,44214
-3,5247803 | 10,876465
-10,171509 | -2,3162842
-7,2509766 | -16,415405
-5,6396484 | -30,212402
-7,2509766 | -49,850464
0,9063721 | -63,14392
-4,1290283 | -61,6333
-13,897705 | -61,23047
-7,3516846 | -62,13684
-7,9559326 | -63,345337
-6,1431885 | -71,40198
-7,9559326 | -67,57507
-4,5318604 | -67,8772
-1,6113281 | -57,403564
-4,4311523 | -60,72693
-0,60424805 | -57,302856
-1,9134521 | -59,317017
-5,3375244 | -37,564087
-2,1148682 | -12,789917
-3,9276123 | -1,9134521
-0,40283203 | -22,055054
-2,2155762 | -37,161255
-1,3092041 | -40,786743
-4,1290283 | -49,54834
-2,3162842 | -46,02356
-3,1219482 | -18,429565
-8,459473 | 14,501953
-8,963013 | 19,134521
-6,3446045 | 6,6467285
-8,761597 | 5,2368164
-6,3446045 | -13,897705
-5,8410645 | -55,08728
-3,5247803 | -77,24304
-1,4099121 | -77,84729
4,4311523 | -92,55066
7,1502686 | -98,39172
1,9134521 | -99,60022
6,2438965 | -123,36731
11,480713 | -164,6576
4,5318604 | -193,6615
11,480713 | -220,75195
1,7120361 | -238,8794
5,3375244 | -232,13196
2,7191162 | -218,23425
-2,2155762 | -196,38062
1,7120361 | -182,68433
-1,3092041 | -159,6222
0,30212402 | -63,848877
-2,8198242 | 100,10376
-9,970093 | 253,28064
-8,560181 | 325,99182
0,50354004 | 334,04846
-5,1361084 | 283,0902
-6,6467285 | 216,01868
-5,1361084 | 164,35547
-7,7545166 | 167,98096
-2,7191162 | 189,23035
-9,970093 | 182,58362
-8,056641 | 143,3075
-2,2155762 | 88,42163
-8,761597 | 52,670288
-6,4453125 | 45,217896
1,5106201 | 45,620728
-3,7261963 | 45,117188
-5,1361084 | 44,41223
-10,272217 | 34,542847
-13,394165 | 36,154175
-1,4099121 | 30,31311
-7,9559326 | 11,380005
-8,862305 | 4,9346924
-12,286377 | 7,0495605
-8,258057 | 11,883545
0,10070801 | 9,567261
-1,3092041 | 41,088867
-5,7403564 | 69,68994
4,9346924 | 80,26428
-6,3446045 | 60,827637
-7,5531006 | 56,497192
-4,0283203 | 46,02356
-10,070801 | 32,629395
-8,660889 | 1,3092041
-8,358765 | -20,645142
-5,5389404 | -33,33435
-1,9134521 | -39,37683
-0,60424805 | -54,885864
-4,3304443 | -79,156494
-8,560181 | -96,57898
5,1361084 | -110,27527
2,6184082 | -91,14075
4,0283203 | -82,9834
1,8127441 | -87,41455
0,30212402 | -56,799316
-2,7191162 | -63,043213
-3,2226562 | -84,49402
-2,4169922 | -87,41455
-3,6254883 | -83,78906
-7,3516846 | -70,29419
-5,1361084 | -55,892944
-10,372925 | -62,338257
-3,7261963 | -61,029053
-8,761597 | -37,664795
-2,9205322 | -27,79541
-1,2084961 | -39,37683
1,7120361 | -52,56958
0,10070801 | -68,88428
-1,1077881 | -87,81738
-1,0070801 | -105,441284
2,0141602 | -122,46094
-6,0424805 | -139,48059
-4,2297363 | -140,08484
-3,3233643 | -102,01721
-2,7191162 | -47,53418
-4,1290283 | 29,003906
-7,1502686 | 139,07776
-5,8410645 | 206,95496
-1,4099121 | 221,85974
-0,9063721 | 190,43884
-1,5106201 | 125,88501
-4,2297363 | 116,11633
-4,8339844 | 122,561646
-8,761597 | 146,32874
-6,1431885 | 137,86926
-5,8410645 | 115,512085
-7,5531006 | 98,39172
-10,574341 | 70,59631
-9,365845 | 34,643555
-7,3516846 | -3,6254883
-5,8410645 | -18,22815
-0,40283203 | -15,408325
-2,5177002 | -13,494873
-1,5106201 | -28,500366
-4,7332764 | -40,98816
-6,5460205 | -50,253296
-9,667969 | -63,14392
1,8127441 | -50,354004
-2,0141602 | -42,90161
2,6184082 | -50,454712
4,2297363 | -77,24304
6,3446045 | -77,645874
5,1361084 | -87,31384
4,6325684 | -84,79614
-1,4099121 | -88,11951
4,2297363 | -98,794556
-5,4382324 | -108,66394
-3,2226562 | -108,76465
-1,8127441 | -103,326416
-9,466553 | -95,37048
-2,7191162 | -96,98181
-6,3446045 | -93,759155
-6,3446045 | -70,79773
-9,365845 | -33,737183
-0,30212402 | -0,60424805
-2,3162842 | 47,232056
-6,1431885 | 91,64429
-10,876465 | 142,30042
-8,963013 | 162,94556
-3,6254883 | 196,98486
-3,1219482 | 230,2185
0 | 221,3562
1,9134521 | 174,8291
6,2438965 | 127,597046
4,6325684 | 70,999146
3,7261963 | 35,95276
3,7261963 | 11,279297
3,8269043 | 3,9276123
-11,581421 | -4,5318604
-2,1148682 | -23,062134
-0,9063721 | -32,42798
-6,8481445 | -22,155762
-2,4169922 | -29,30603
-1,4099121 | -41,592407
1,3092041 | -56,295776
0,30212402 | -60,424805
2,2155762 | -81,87561
1,2084961 | -111,68518
0,30212402 | -135,25085
0,70495605 | -141,59546
0,9063721 | -150,15564
-2,6184082 | -168,68591
-0,80566406 | -191,04309
6,3446045 | -208,96912
-2,0141602 | -173,11707
4,8339844 | -119,23828
2,6184082 | -112,59155
2,9205322 | -118,029785
-0,20141602 | -141,29333
-0,50354004 | -133,2367
-6,8481445 | -138,17139
-3,5247803 | -126,18713
-9,970093 | -87,11243
0,70495605 | 2,9205322
1,3092041 | 140,28625
-6,9488525 | 259,92737
-1,9134521 | 300,00916
-2,7191162 | 270,401
-9,164429 | 236,56311
-7,1502686 | 236,76453
-7,7545166 | 242,60559
-7,5531006 | 211,58752
-5,7403564 | 130,92041
-2,7191162 | 52,368164
-10,171509 | -0,30212402
-8,560181 | -5,8410645
-9,265137 | 16,113281
0,10070801 | 39,37683
1,3092041 | 65,25879
4,0283203 | 121,75598
-0,50354004 | 104,73633
-3,1219482 | 59,61914
-2,0141602 | 13,394165
-4,7332764 | -22,155762
-12,588501 | -43,103027
-14,401245 | -47,53418
-14,300537 | -46,02356
-10,977173 | -27,694702
2,9205322 | -8,963013
1,3092041 | -15,710449
-1,5106201 | -14,401245
-5,9417725 | -19,134521
-2,0141602 | -22,558594
0,9063721 | -11,178589
7,7545166 | 0,30212402
4,8339844 | 5,4382324
9,466553 | 2,5177002
3,7261963 | 0,9063721
-2,3162842 | 10,675049
-4,5318604 | 12,689209
-0,9063721 | 14,703369
4,6325684 | 3,5247803
1,1077881 | -4,2297363
4,1290283 | -6,9488525
1,5106201 | -3,9276123
-1,8127441 | -12,991333
2,1148682 | -2,3162842
3,6254883 | 21,450806
2,9205322 | 49,346924
-0,70495605 | 28,29895
-0,50354004 | 2,0141602
1,1077881 | -28,29895
1,1077881 | -40,786743
0,20141602 | -63,14392
4,1290283 | -103,72925
1,1077881 | -136,86218
-0,9063721 | -165,36255
11,380005 | -200,30823
0,40283203 | -214,81018
0,10070801 | -233,34045
-0,10070801 | -211,58752
-6,7474365 | -118,2312
-0,10070801 | -67,57507
-0,20141602 | -59,1156
-1,2084961 | -61,331177
-2,7191162 | -78,45154
1,5106201 | -81,06995
-10,372925 | -90,5365
-6,5460205 | -88,0188
-4,1290283 | -97,58606
-1,2084961 | -90,83862
-2,7191162 | -14,804077
-12,789917 | 91,34216
-12,991333 | 120,64819
-12,185669 | 88,220215
-4,3304443 | 45,822144
-2,7191162 | 4,9346924
-7,1502686 | -56,19507
-3,8269043 | -81,97632
-5,6396484 | -89,328
-8,358765 | -86,91101
4,0283203 | -82,07703
5,5389404 | -83,88977
8,459473 | -84,09119
-0,30212402 | -81,47278
-0,30212402 | -92,85278
-2,7191162 | -94,66553
0,50354004 | -82,88269
-0,30212402 | -27,493286
3,7261963 | 46,124268
0,9063721 | 139,37988
-6,3446045 | 248,74878
-1,2084961 | 369,29626
-4,3304443 | 469,90356
-12,387085 | 446,5393
-1,0070801 | 356,70776
-7,6538086 | 264,76135
0,70495605 | 179,56238
2,3162842 | 98,39172
-2,8198242 | 22,76001
-6,8481445 | -17,623901
-5,6396484 | -24,975586
-1,4099121 | -6,7474365
-4,0283203 | -12,185669
0,30212402 | 6,7474365
2,0141602 | 3,4240723
1,8127441 | -52,06604
-3,1219482 | -115,10925
-0,9063721 | -124,37439
-5,5389404 | -127,89917
-3,2226562 | -140,08484
-3,6254883 | -134,24377
-7,2509766 | -133,94165
2,5177002 | -130,51758
-3,5247803 | -114,001465
-4,1290283 | -109,57031
-0,10070801 | -88,62305
-9,970093 | -45,41931
-7,8552246 | 63,546753
-6,6467285 | 170,39795
-5,7403564 | 198,89832
-9,970093 | 205,84717
-10,574341 | 219,14062
-0,20141602 | 183,89282
-4,8339844 | 128,80554
-7,3516846 | 96,780396
-5,7403564 | 75,128174
1,1077881 | 69,38782
-0,10070801 | 53,274536
-5,1361084 | 39,37683
-1,5106201 | 25,881958
11,581421 | 13,595581
-2,6184082 | 6,5460205
-2,3162842 | -1,7120361
-3,5247803 | -6,8481445
-5,9417725 | -8,560181
-5,8410645 | -9,063721
-2,2155762 | -20,645142
1,3092041 | -33,535767
-1,1077881 | -46,728516
-1,1077881 | -50,454712
-2,1148682 | -54,18091
-4,8339844 | -55,892944
-9,164429 | -65,460205
-5,0354004 | -61,029053
-6,6467285 | -67,17224
-5,3375244 | -65,56091
-0,80566406 | -54,281616
-1,6113281 | -42,39807
-5,0354004 | -50,55542
-4,4311523 | -61,73401
-5,7403564 | -69,79065
8,056641 | -67,977905
-6,3446045 | -64,25171
-7,6538086 | -69,08569
-2,0141602 | -67,977905
-7,7545166 | -62,23755
-11,077881 | -56,09436
-7,4523926 | -46,02356
6,1431885 | -32,730103
-10,372925 | -24,472046
-3,3233643 | -19,033813
-0,9063721 | -12,789917
-6,3446045 | -5,5389404
1,1077881 | 10,372925
-2,5177002 | 37,46338
-1,8127441 | 58,309937
-0,10070801 | 62,539673
2,1148682 | 76,034546
-5,2368164 | 94,96765
-4,9346924 | 105,441284
-0,40283203 | 93,45703
-0,9063721 | 66,56799
-5,1361084 | 44,0094
-0,9063721 | 20,24231
-1,1077881 | -3,3233643
0,50354004 | -23,062134
1,1077881 | -31,32019
-0,10070801 | -41,39099
-6,1431885 | -50,454712
-10,171509 | -73,91968
-9,768677 | -89,93225
-3,9276123 | -95,16907
-5,7403564 | -99,298096
-4,0283203 | -100,20447
-1,9134521 | -102,62146
-3,3233643 | -101,51367
-5,3375244 | -90,43579
-8,761597 | -100,20447
-0,70495605 | -102,319336
-10,171509 | -102,21863
-10,372925 | -102,21863
-12,084961 | -95,5719
-6,7474365 | -69,79065
-8,660889 | -51,663208
-4,6325684 | -31,018066
-5,5389404 | -10,675049
-2,3162842 | 24,77417
-2,7191162 | 46,42639
-3,9276123 | 50,55542
-2,3162842 | 64,956665
-6,7474365 | 76,638794
-8,560181 | 63,949585
0,10070801 | 61,935425
0 | 72,20764
1,7120361 | 96,67969
0,40283203 | 102,52075
-2,8198242 | 112,59155
2,9205322 | 89,83154
-1,2084961 | 50,454712
-1,1077881 | 2,5177002
-4,3304443 | -44,0094
-4,6325684 | -79,45862
0,40283203 | -70,89844
0,10070801 | -73,31543
-5,4382324 | -59,61914
-3,1219482 | -57,806396
-1,2084961 | -80,163574
-3,0212402 | -92,752075
-6,4453125 | -102,923584
-5,7403564 | -74,523926
-2,4169922 | 27,694702
-5,0354004 | 76,84021
-1,1077881 | 94,86694
-4,5318604 | 116,519165
-9,466553 | 107,35474
-2,9205322 | 77,44446
-5,4382324 | 35,046387
-5,1361084 | 10,574341
-0,9063721 | 3,3233643
-3,2226562 | -1,5106201
-5,1361084 | 0,9063721
-6,3446045 | 4,5318604
-6,4453125 | 1,5106201
-6,1431885 | -12,487793
-5,5389404 | -9,466553
-8,358765 | 5,9417725
-9,365845 | 14,199829
-3,8269043 | 19,436646
-11,782837 | 42,800903
-6,0424805 | 58,007812
0,10070801 | 36,4563
3,7261963 | 22,25647
-3,1219482 | 10,272217
4,3304443 | 4,3304443
7,5531006 | 10,070801
1,8127441 | 1,7120361
4,5318604 | 5,7403564
-0,40283203 | 12,890625
-7,9559326 | 24,874878
2,3162842 | 32,528687
4,2297363 | 39,074707
-2,3162842 | 36,35559
-7,3516846 | 16,314697
-11,480713 | 35,549927
-7,6538086 | 39,074707
-12,789917 | 20,74585
-5,1361084 | -8,560181
-2,6184082 | -28,601074
-2,6184082 | -44,51294
2,0141602 | -50,857544
3,7261963 | -62,338257
0,70495605 | -56,295776
3,6254883 | -69,992065
7,7545166 | -76,7395
2,6184082 | -70,19348
-0,50354004 | -58,71277
-2,5177002 | -41,89453
-4,6325684 | -48,641968
0,30212402 | -50,756836
-2,5177002 | -50,756836
-2,4169922 | -64,453125
-5,5389404 | -59,21631
-2,0141602 | -45,41931
-3,7261963 | -36,154175
-1,5106201 | -36,154175
-2,0141602 | -36,154175
-5,9417725 | -36,154175
-5,1361084 | -36,154175
-2,5177002 | -36,154175
4,8339844 | -36,154175
-1,3092041 | -36,154175
-4,7332764 | -36,154175
0,10070801 | -36,154175
-1,8127441 | -36,154175
-0,50354004 | -36,154175
2,5177002 | -36,154175
0,20141602 | -36,154175
-8,459473 | -36,154175
-4,5318604 | 14,904785
0,20141602 | 43,00232
5,6396484 | 53,878784
-5,7403564 | 51,763916
2,0141602 | 50,152588
0,30212402 | 45,92285
-1,9134521 | 25,680542
-0,60424805 | -1,5106201
-5,1361084 | -28,903198
3,3233643 | -49,246216
-5,3375244 | -56,295776
-5,0354004 | -60,525513
3,4240723 | -57,504272
8,157349 | -48,94409
5,7403564 | -55,490112
0,30212402 | -80,86853
4,3304443 | -120,547485
-1,5106201 | -127,194214
6,1431885 | -110,476685
-2,8198242 | -102,01721
-0,30212402 | -98,794556
2,5177002 | -116,519165
-1,3092041 | -127,697754
-1,8127441 | -113,497925
-6,8481445 | -71,502686
-0,10070801 | 11,178589
-3,1219482 | 92,34924
-1,2084961 | 118,029785
-0,50354004 | 146,02661
-10,775757 | 127,29492
4,7332764 | 103,829956
-2,0141602 | 74,42322
-1,7120361 | 45,92285
0,70495605 | 31,32019
-7,1502686 | 27,593994
-1,4099121 | 37,161255
-3,4240723 | 29,003906
-1,3092041 | 10,977173
-3,8269043 | -12,487793
-1,1077881 | -26,78833
-4,8339844 | -11,782837
-11,279297 | -18,127441
-5,9417725 | -11,077881
-4,4311523 | 11,380005
-9,265137 | 44,210815
0,50354004 | 54,885864
-1,1077881 | 61,532593
-2,5177002 | 57,70569
0,30212402 | 37,765503
-2,2155762 | 9,466553
-4,1290283 | -37,96692
-1,0070801 | -70,3949
-1,6113281 | -89,83154
-3,5247803 | -92,65137
-7,9559326 | -81,97632
-5,1361084 | -33,9386
-4,5318604 | 7,7545166
-3,9276123 | -2,4169922
-7,7545166 | -21,853638
-6,7474365 | -47,232056
-5,9417725 | -64,453125
-8,459473 | -75,027466
-6,4453125 | -74,32251
-6,7474365 | -60,72693
-15,811157 | -27,191162
-8,761597 | 39,88037
-10,171509 | 80,76782
-9,869385 | 108,76465
-8,459473 | 111,58447
-7,5531006 | 89,52942
-8,358765 | 52,267456
-1,3092041 | 27,996826
-7,6538086 | 0,20141602
-1,3092041 | -41,693115
2,3162842 | -72,40906
2,1148682 | -84,99756
3,9276123 | -66,06445
0,20141602 | 24,572754
-0,30212402 | 113,29651
-5,8410645 | 131,12183
-6,5460205 | 79,055786
10,775757 | 35,34851
5,5389404 | 4,4311523
4,5318604 | -9,970093
5,1361084 | -0,70495605
-2,2155762 | -5,9417725
-0,50354004 | -13,696289
0,20141602 | -25,680542
0,30212402 | -43,90869
-6,9488525 | -53,07312
-13,998413 | -60,928345
-9,869385 | -83,48694
-13,192749 | -86,30676
-6,1431885 | -85,702515
-2,7191162 | -82,681274
-1,6113281 | -85,90393
-2,6184082 | -103,427124
7,1502686 | -137,56714
-1,7120361 | -148,54431
-0,40283203 | -155,39246
3,5247803 | -172,51282
4,7332764 | -164,05334
-5,1361084 | -139,98413
-3,1219482 | -100,20447
-2,6184082 | -52,368164
-5,4382324 | -5,7403564
-0,50354004 | 48,339844
-1,6113281 | 123,36731
-5,3375244 | 163,95264
-5,1361084 | 182,18079
-2,1148682 | 179,96521
-2,4169922 | 171,70715
-2,7191162 | 201,01318
-11,581421 | 232,93762
2,3162842 | 261,33728
-1,5106201 | 272,51587
-0,50354004 | 245,02258
-4,9346924 | 195,27283
-3,4240723 | 145,42236
-8,660889 | 111,8866
-11,682129 | 80,26428
-2,2155762 | 64,85596
-4,6325684 | 58,511353
0,70495605 | 46,728516
-2,1148682 | 41,189575
-1,9134521 | 26,889038
-3,1219482 | 14,804077
1,0070801 | -7,9559326
-1,0070801 | -13,192749
-7,8552246 | -17,523193
-13,998413 | -19,537354
0,30212402 | -31,723022
-3,1219482 | -33,636475
-4,3304443 | -42,800903
0,50354004 | -48,339844
-0,50354004 | -63,345337
-2,3162842 | -74,82605
-0,10070801 | -80,96924
-14,804077 | -86,206055
-9,164429 | -84,2926
-5,9417725 | -89,93225
-5,5389404 | -76,33667
-6,1431885 | -47,53418
-1,1077881 | -36,154175
-5,6396484 | -35,95276
-4,0283203 | -37,36267
-4,1290283 | -39,074707
-2,9205322 | -29,910278
5,9417725 | -10,574341
-1,0070801 | 0,10070801
-1,3092041 | 7,3516846
-4,1290283 | 5,2368164
-6,5460205 | -6,7474365
-5,9417725 | -1,9134521
-6,3446045 | -0,40283203
-6,5460205 | 9,667969
-6,6467285 | 10,675049
-5,1361084 | 11,782837
-1,5106201 | 17,321777
-3,0212402 | 13,897705
1,6113281 | 37,36267
-3,7261963 | 47,232056
-2,0141602 | 32,528687
-4,8339844 | 10,272217
4,1290283 | -3,1219482
4,2297363 | -12,185669
1,3092041 | -24,874878
-3,5247803 | -29,104614
-0,80566406 | -33,737183
-0,10070801 | -44,51294
-4,1290283 | -57,302856
-2,0141602 | -60,22339
0,30212402 | -80,163574
-3,9276123 | -71,30127
-2,3162842 | -63,949585
-5,5389404 | -76,538086
-4,4311523 | -90,33508
-7,9559326 | -64,65454
-7,6538086 | -39,578247
-11,077881 | -34,34143
-9,164429 | -29,608154
-10,171509 | -14,199829
-15,307617 | -18,530273
-8,862305 | -50,656128
-3,9276123 | -70,59631
0,9063721 | -86,50818
-1,3092041 | -85,198975
0,20141602 | -76,538086
0,70495605 | -51,864624
3,2226562 | -40,48462
-2,2155762 | -29,30603
-3,0212402 | -24,874878
2,3162842 | -27,090454
-6,9488525 | -29,507446
-4,1290283 | -31,521606
-0,30212402 | -17,321777
-1,6113281 | 25,177002
-1,8127441 | 60,12268
2,3162842 | 68,38074
2,5177002 | 69,488525
4,1290283 | 84,89685
3,6254883 | 120,84961
0,70495605 | 136,25793
-0,9063721 | 132,63245
-4,8339844 | 102,21863
2,9205322 | 78,048706
-1,6113281 | 45,01648
-9,869385 | 28,601074
2,5177002 | 13,192749
-4,5318604 | 4,1290283
-4,0283203 | 0,80566406
-1,2084961 | -21,148682
0 | -20,846558
-1,3092041 | -30,615234
1,3092041 | -37,261963
-1,0070801 | -52,871704
-0,50354004 | -60,72693
-5,1361084 | -63,043213
-0,9063721 | -50,656128
-6,7474365 | -46,325684
-9,869385 | -49,0448
-10,675049 | -39,37683
-12,387085 | -26,385498
-3,1219482 | -17,22107
-8,560181 | -12,487793
-8,157349 | -0,20141602
-7,5531006 | 7,5531006
-6,3446045 | 14,099121
-5,1361084 | 22,659302
-6,7474365 | 29,30603
-12,991333 | 24,169922
-9,466553 | 7,9559326
-7,7545166 | -6,2438965
0,10070801 | -13,092041
-1,0070801 | -7,4523926
-0,30212402 | -13,897705
-4,1290283 | 10,876465
-6,6467285 | 11,883545
8,056641 | -27,29187
-10,473633 | -69,992065
-4,6325684 | -94,56482
-2,8198242 | -117,62695
-2,6184082 | -120,84961
-0,9063721 | -105,23987
-2,7191162 | -75,4303
-0,10070801 | -51,05896
-3,5247803 | -43,606567
-9,164429 | -14,199829
-9,970093 | 8,761597
-9,063721 | -2,9205322
-6,2438965 | -55,08728
-0,10070801 | -81,87561
-5,4382324 | -108,26111
-0,9063721 | -111,78589
-13,092041 | -88,11951
-7,6538086 | -45,01648
-3,4240723 | 18,832397
-4,9346924 | 88,723755
-2,5177002 | 94,66553
-1,3092041 | 88,11951
-0,30212402 | 74,42322
-4,5318604 | 49,0448
-1,8127441 | 26,889038
-3,5247803 | 23,968506
0,20141602 | 50,857544
-0,30212402 | 84,39331
0,50354004 | 81,47278
-1,5106201 | 62,338257
5,4382324 | 56,295776
-2,7191162 | 64,151
-1,5106201 | 87,11243
-3,9276123 | 92,752075
-17,22107 | 95,37048
-2,1148682 | 71,80481
-1,8127441 | 60,827637
5,5389404 | 45,217896
1,3092041 | 43,606567
2,5177002 | 60,827637
-3,5247803 | 100,909424
-1,0070801 | 127,99988
-6,6467285 | 106,54907
-9,869385 | 73,81897
-7,5531006 | 49,649048
-3,3233643 | 11,682129
-4,5318604 | -10,473633
-1,9134521 | -21,652222
-9,667969 | -25,579834
-11,581421 | -32,93152
-10,171509 | -58,007812
-0,50354004 | -68,17932
-4,1290283 | -90,13367
-1,1077881 | -122,46094
-1,9134521 | -136,86218
-2,9205322 | -145,01953
-6,7474365 | -162,34131
-4,4311523 | -173,6206
-3,3233643 | -182,58362
-4,5318604 | -157,80945
-3,2226562 | -140,38696
-12,689209 | -139,27917
0,50354004 | -131,32324
4,9346924 | -129,00696
0,50354004 | -99,49951
2,4169922 | -68,38074
-0,50354004 | -20,846558
6,0424805 | -3,5247803
3,3233643 | 38,36975
1,1077881 | 83,08411
-3,6254883 | 125,7843
2,2155762 | 131,22253
13,897705 | 93,65845
-2,3162842 | 47,836304
-0,80566406 | 30,111694
0,50354004 | 11,380005
-4,6325684 | 2,3162842
0,70495605 | -26,28479
-4,3304443 | -14,199829
-8,358765 | -9,063721
-4,4311523 | -5,5389404
2,7191162 | 8,358765
-5,0354004 | 26,687622
-1,7120361 | 34,643555
4,8339844 | 33,032227
5,0354004 | 74,72534
-4,2297363 | 118,93616
-6,7474365 | 135,55298
-0,60424805 | 122,25952
4,6325684 | 108,66394
-4,5318604 | 103,02429
-8,258057 | 102,420044
-3,0212402 | 108,66394
-12,387085 | 99,60022
-9,365845 | 69,79065
-10,876465 | 45,822144
-2,6184082 | 12,588501
-4,5318604 | -22,055054
1,1077881 | -30,917358
-8,862305 | -33,535767
-10,775757 | -42,599487
-4,0283203 | -46,02356
2,0141602 | -70,19348
1,1077881 | -69,28711
1,1077881 | -80,06287
0,60424805 | -77,84729
-2,2155762 | -61,331177
5,5389404 | -30,111694
11,480713 | -28,097534
7,3516846 | -48,03772
3,7261963 | -61,6333
4,0283203 | -64,75525
0,40283203 | -64,65454
2,9205322 | -55,389404
8,761597 | -7,6538086
2,4169922 | 77,645874
18,832397 | 103,125
-5,0354004 | 87,31384
2,9205322 | 73,21472
-0,9063721 | 42,90161
6,0424805 | -9,365845
0,50354004 | -59,1156
-3,5247803 | -77,948
-5,4382324 | -95,97473
-5,1361084 | -116,72058
1,5106201 | -156,60095
-0,20141602 | -190,43884
10,171509 | -208,86841
-1,0070801 | -211,2854
-3,2226562 | -225,48523
4,0283203 | -235,55603
1,3092041 | -234,64966
2,5177002 | -179,26025
9,567261 | -62,13684
2,5177002 | 119,74182
-3,9276123 | 229,21143
-5,6396484 | 285,20508
-10,876465 | 288,1256
-8,862305 | 273,62366
-8,358765 | 238,8794
-9,970093 | 201,91956
3,8269043 | 182,98645
2,1148682 | 142,70325
-9,970093 | 104,837036
-3,4240723 | 81,06995
-2,1148682 | 59,921265
-9,567261 | 55,18799
-10,775757 | 51,763916
-3,5247803 | 53,878784
-1,3092041 | 33,535767
0,70495605 | 28,903198
5,1361084 | 25,479126
0,70495605 | 26,184082
-4,6325684 | 31,723022
-3,5247803 | 40,38391
0,20141602 | 47,131348
-1,8127441 | 56,09436
-5,3375244 | 56,19507
-6,3446045 | 36,254883
-7,8552246 | 12,588501
-1,4099121 | -16,314697
8,660889 | -40,182495
-2,0141602 | -62,74109
8,358765 | -67,977905
3,4240723 | -87,51526
-1,0070801 | -108,36182
-2,3162842 | -123,46802
-2,5177002 | -136,45935
-6,4453125 | -141,09192
-5,3375244 | -149,85352
-5,5389404 | -159,6222
-5,7403564 | -165,56396
-5,5389404 | -169,08875
-4,7332764 | -162,2406
-0,30212402 | -137,1643
6,1431885 | -84,695435
-4,1290283 | 15,911865
-2,3162842 | 107,65686
-0,30212402 | 127,194214
1,0070801 | 96,17615
-2,8198242 | 58,20923
-2,8198242 | 20,443726
-3,9276123 | -1,1077881
-0,10070801 | -7,9559326
2,5177002 | 6,5460205
-5,0354004 | 31,924438
-3,0212402 | 32,83081
0,70495605 | 25,076294
2,7191162 | 34,34143
0,40283203 | 43,606567
-0,50354004 | 30,715942
1,1077881 | 23,565674
-4,7332764 | 24,27063
-2,3162842 | 22,961426
0,70495605 | 16,616821
-0,10070801 | 12,991333
0,30212402 | 26,083374
-8,761597 | 68,07861
0,40283203 | 113,69934
-6,3446045 | 132,83386
-1,6113281 | 139,88342
-2,5177002 | 122,86377
-6,9488525 | 86,50818
-7,9559326 | 59,1156
-4,1290283 | 47,03064
1,5106201 | 61,23047
-0,50354004 | 70,59631
0,9063721 | 63,14392
6,0424805 | 24,572754
5,7403564 | -12,084961
-1,2084961 | -42,39807
-3,1219482 | -62,438965
-6,0424805 | -70,19348
-7,1502686 | -89,730835
-15,106201 | -77,34375
-10,272217 | -54,58374
-7,1502686 | -54,885864
-4,2297363 | -54,68445
-7,1502686 | -68,68286
-2,8198242 | -80,56641
2,7191162 | -91,64429
0,50354004 | -87,61597
2,6184082 | -69,992065
-0,40283203 | -62,539673
-0,70495605 | -49,246216
0,9063721 | -47,735596
-5,1361084 | -31,521606
-9,063721 | -25,881958
-8,761597 | -15,408325
-2,9205322 | -11,581421
-0,10070801 | -15,911865
-5,6396484 | -13,494873
-4,1290283 | -2,0141602
-1,1077881 | -1,1077881
-5,6396484 | 16,314697
-0,9063721 | 29,80957
-5,4382324 | 43,304443
-4,6325684 | 47,43347
-6,6467285 | 39,37683
-7,1502686 | 23,26355
-10,272217 | 10,977173
-9,466553 | -12,487793
-4,6325684 | -25,479126
0,20141602 | -35,549927
-8,358765 | -31,32019
-10,372925 | -27,090454
-10,876465 | -9,970093
-8,660889 | 13,092041
-10,775757 | 17,120361
-11,077881 | 13,394165
-11,178589 | 6,9488525
-13,595581 | -8,258057
-9,567261 | -19,335938
-7,0495605 | -26,989746
0,9063721 | -23,666382
-3,7261963 | -46,627808
0,80566406 | -76,94092
-7,1502686 | -103,326416
-10,171509 | -112,59155
-7,7545166 | -118,533325
-6,7474365 | -124,67651
-15,206909 | -108,56323
-17,22107 | -107,15332
-14,401245 | -122,46094
-7,5531006 | -134,6466
-2,7191162 | -153,57971
9,667969 | -169,08875
-3,1219482 | -164,95972
-6,3446045 | -161,83777
-7,4523926 | -157,60803
-4,7332764 | -128,50342
-9,063721 | -71,20056
-5,4382324 | 86,50818
-9,164429 | 209,47266
1,6113281 | 229,11072
5,2368164 | 195,17212
6,7474365 | 165,26184
7,3516846 | 130,719
8,258057 | 96,37756
9,265137 | 120,547485
2,4169922 | 162,64343
4,9346924 | 218,8385
-6,6467285 | 207,25708
-6,7474365 | 152,1698
-3,5247803 | 88,82446
4,2297363 | 43,707275
-0,9063721 | 10,272217
-1,2084961 | -13,696289
-3,8269043 | -8,157349
-6,4453125 | -5,4382324
-7,3516846 | -25,78125
-5,9417725 | -38,36975
-4,5318604 | -52,468872
-4,6325684 | -53,979492
0,30212402 | -48,742676
-4,4311523 | -41,189575
3,2226562 | -46,92993
-6,8481445 | -33,33435
-9,063721 | 42,800903
-4,5318604 | 79,660034
-9,567261 | 71,60339
2,7191162 | 37,564087
-1,8127441 | -6,9488525
-1,4099121 | -33,83789
0,9063721 | -49,0448
-4,5318604 | -67,17224
-2,5177002 | -72,81189
-2,5177002 | -52,267456
-4,4311523 | -17,926025
2,5177002 | 31,118774
4,1290283 | 61,23047
1,6113281 | 58,511353
5,7403564 | 48,641968
3,7261963 | 67,977905
-0,60424805 | 81,674194
2,6184082 | 90,33508
0,10070801 | 91,241455
0,50354004 | 95,37048
5,4382324 | 81,674194
2,3162842 | 66,16516
-4,5318604 | 46,224976
8,560181 | 31,924438
0,9063721 | 29,30603
-0,9063721 | 25,076294
-2,5177002 | 17,22107
1,7120361 | 19,436646
2,8198242 | 16,113281
6,5460205 | 5,3375244
0,40283203 | -26,486206
-3,2226562 | -57,20215
-2,5177002 | -73,91968
2,7191162 | -78,048706
-6,2438965 | -76,638794
-8,761597 | -75,128174
-4,7332764 | -60,62622
0,30212402 | -43,304443
-0,70495605 | -40,585327
-4,3304443 | -49,145508
-3,2226562 | -49,0448
-3,5247803 | -60,827637
4,1290283 | -58,61206
-0,70495605 | -43,606567
-5,0354004 | -25,177002
-5,1361084 | -6,1431885
-10,574341 | -0,80566406
-3,1219482 | -7,7545166
-4,6325684 | -16,415405
-3,0212402 | -27,29187
-10,574341 | -47,43347
-0,9063721 | -68,28003
-6,6467285 | -92,55066
-4,7332764 | -100,20447
-2,8198242 | -96,17615
-0,70495605 | -88,92517
-1,6113281 | -44,41223
4,2297363 | 51,5625
-0,30212402 | 76,84021
-7,4523926 | 64,453125
6,1431885 | 53,375244
-0,60424805 | 28,601074
1,1077881 | 18,429565
-1,2084961 | 12,689209
-6,7474365 | 12,286377
-8,963013 | -2,5177002
-10,372925 | -17,22107
-7,8552246 | -17,72461
0,30212402 | -23,867798
0,9063721 | 15,206909
-2,9205322 | 68,28003
-6,2438965 | 123,77014
-4,4311523 | 122,36023
-4,3304443 | 80,06287
-3,9276123 | 38,87329
-1,7120361 | 10,977173
-12,084961 | 2,4169922
-3,9276123 | -11,782837
-3,9276123 | -13,998413
-4,5318604 | -29,910278
-11,782837 | -45,217896
-5,1361084 | -61,12976
-2,5177002 | -24,069214
-7,1502686 | 20,443726
-10,775757 | 16,516113
-6,5460205 | -15,206909
-1,7120361 | -31,82373
1,9134521 | -30,514526
-1,4099121 | -12,789917
1,6113281 | -5,8410645
2,5177002 | 8,862305
-2,3162842 | 19,436646
0,80566406 | 19,73877
-0,10070801 | 24,27063
1,1077881 | 32,93152
2,3162842 | 20,74585
-0,80566406 | 13,394165
-3,5247803 | 9,970093
-5,9417725 | 7,3516846
-4,0283203 | 8,963013
0,10070801 | 16,918945
-4,8339844 | 11,178589
-1,3092041 | 24,572754
0,50354004 | 16,818237
0,60424805 | 21,551514
2,3162842 | 19,537354
0,10070801 | 26,28479
5,3375244 | 18,026733
0,10070801 | 19,940186
-1,1077881 | 18,328857
-4,1290283 | 20,24231
-0,10070801 | 25,881958
-3,4240723 | 14,199829
-3,1219482 | -24,169922
-7,8552246 | -38,36975
-5,0354004 | -62,338257
1,0070801 | -73,21472
-1,0070801 | -84,39331
-1,5106201 | -84,695435
-9,970093 | -93,35632
-2,0141602 | -90,13367
-3,0212402 | -88,92517
2,9205322 | -87,61597
-2,7191162 | -114,4043
2,5177002 | -131,02112
-0,10070801 | -144,7174
1,3092041 | -147,94006
1,5106201 | -142,60254
3,2226562 | -134,6466
-2,4169922 | -108,05969
-3,4240723 | -45,41931
-0,20141602 | 36,85913
-1,3092041 | 113,39722
-2,7191162 | 118,13049
-1,6113281 | 106,75049
-4,5318604 | 84,2926
-3,8269043 | 50,152588
-4,3304443 | 21,148682
2,3162842 | 26,889038
-6,0424805 | 60,12268
-4,3304443 | 79,660034
-9,567261 | 89,42871
-7,1502686 | 87,213135
-0,9063721 | 103,72925
3,9276123 | 102,21863
-3,1219482 | 78,75366
-0,9063721 | 48,03772
-12,789917 | 24,673462
-2,2155762 | 1,7120361
-7,8552246 | -11,984253
-4,7332764 | -34,140015
0,60424805 | -46,224976
-3,0212402 | -13,192749
0,70495605 | -2,5177002
-1,6113281 | -17,019653
-2,5177002 | -35,247803
3,9276123 | -39,175415
-5,7403564 | -22,357178
-10,171509 | -8,560181
-2,7191162 | -15,509033
0,30212402 | -42,49878
2,9205322 | -68,28003
-5,5389404 | -69,1864
2,1148682 | -43,807983
-5,4382324 | -21,75293
-9,970093 | -17,926025
1,0070801 | -36,154175
-0,10070801 | -51,864624
2,7191162 | -46,5271
-2,8198242 | -39,37683
-3,1219482 | -31,32019
-11,581421 | -5,7403564
-8,660889 | 28,198242
-11,682129 | 30,212402
-7,2509766 | 4,5318604
-7,0495605 | -23,867798
-3,6254883 | -46,325684
-4,3304443 | -67,07153
-6,1431885 | -79,2572
0,70495605 | -94,16199
-1,0070801 | -127,49634
4,1290283 | -147,43652
2,5177002 | -121,75598
-3,2226562 | -28,601074
-8,963013 | 7,1502686
-0,50354004 | -41,39099
1,9134521 | -106,64978
2,9205322 | -153,78113
-4,0283203 | -147,53723
0,60424805 | -122,058105
7,4523926 | -87,51526
5,5389404 | -43,707275
2,3162842 | 44,210815
1,0070801 | 128,60413
6,1431885 | 127,89917
-4,7332764 | 107,455444
-6,9488525 | 84,49402
-8,358765 | 106,75049
-7,0495605 | 158,11157
-2,1148682 | 179,7638
-6,2438965 | 167,276
-5,5389404 | 135,04944
-7,0495605 | 83,58765
-4,6325684 | 62,539673
-1,7120361 | 104,434204
-7,2509766 | 148,54431
-9,164429 | 155,9967
3,4240723 | 138,07068
-6,9488525 | 123,16589
-9,567261 | 96,780396
-7,8552246 | 73,21472
-7,2509766 | 58,410645
-7,7545166 | 53,67737
-3,8269043 | 31,622314
-9,365845 | 30,010986
-2,1148682 | 21,954346
-2,9205322 | 14,602661
-0,70495605 | 20,343018
-3,9276123 | 53,07312
-3,6254883 | 64,65454
-2,3162842 | 60,424805
-1,8127441 | 51,763916
-6,7474365 | 58,410645
-3,7261963 | 33,132935
-0,20141602 | 2,9205322
12,286377 | -13,696289
-2,1148682 | -13,595581
0,70495605 | -19,033813
-2,4169922 | -18,429565
0,10070801 | -37,261963
0,70495605 | -49,850464
2,3162842 | -59,1156
0,50354004 | -80,4657
0,60424805 | -96,37756
-1,5106201 | -115,41138
2,4169922 | -100,808716
1,4099121 | -39,175415
1,6113281 | 15,408325
-2,7191162 | 18,832397
-1,7120361 | -5,8410645
-4,1290283 | -20,74585
-3,9276123 | -24,975586
0,9063721 | -21,954346
-2,6184082 | -19,940186
-1,7120361 | -1,5106201
-13,796997 | -2,5177002
-0,10070801 | -13,595581
-6,2438965 | -24,069214
-1,7120361 | -16,616821
-1,2084961 | 1,9134521
0,60424805 | 10,171509
-4,7332764 | 20,24231
-6,5460205 | 44,0094
-5,9417725 | 48,843384
-5,0354004 | 38,772583
-6,7474365 | 29,608154
-0,10070801 | 28,399658
-0,9063721 | 12,487793
-4,9346924 | -13,092041
-2,2155762 | -21,954346
-10,876465 | -15,609741
-0,20141602 | 2,0141602
-1,8127441 | 9,667969
2,2155762 | 15,408325
-3,4240723 | 7,0495605
-6,3446045 | 3,3233643
-1,7120361 | -4,7332764
-1,1077881 | -8,660889
3,8269043 | -18,026733
4,1290283 | -20,443726
7,3516846 | -28,80249
1,8127441 | -35,046387
-3,4240723 | -24,572754
-5,1361084 | -43,90869
-5,4382324 | -51,05896
-8,963013 | -58,511353
-4,6325684 | -67,57507
-7,1502686 | -76,33667
-13,192749 | -97,38464
-6,3446045 | -107,85828
-3,8269043 | -132,0282
-8,358765 | -140,08484
-5,3375244 | -143,91174
-10,473633 | -129,6112
-0,30212402 | -130,92041
2,7191162 | -135,25085
-0,9063721 | -119,540405
0,10070801 | -103,72925
-0,10070801 | -100,909424
1,7120361 | -93,96057
2,1148682 | -72,81189
0,50354004 | -26,78833
-0,10070801 | 26,385498
0,20141602 | 51,361084
2,2155762 | 53,878784
0,40283203 | 49,95117
1,7120361 | 42,800903
4,6325684 | 18,630981
2,4169922 | 13,293457
-2,3162842 | 24,874878
-2,4169922 | 26,083374
2,2155762 | 22,659302
1,6113281 | 35,95276
-1,6113281 | 32,93152
1,6113281 | 42,599487
-2,5177002 | 52,468872
-1,1077881 | 86,00464
2,4169922 | 68,481445
-6,6467285 | 31,018066
-6,4453125 | -1,7120361
-8,560181 | -34,84497
-6,6467285 | -66,16516
-1,7120361 | -89,328
-3,9276123 | -90,234375
-9,667969 | -84,79614
-9,970093 | 1,9134521
-3,5247803 | 124,77722
-8,761597 | 155,39246
0,20141602 | 102,21863
-7,7545166 | 30,111694
-1,1077881 | -2,7191162
-0,30212402 | 7,7545166
0 | -12,991333
-0,10070801 | -33,737183
-5,0354004 | -40,081787
-1,8127441 | -29,003906
-9,164429 | -21,853638
-1,3092041 | -15,408325
-0,9063721 | 1,9134521
-3,7261963 | -16,012573
4,3304443 | -22,860718
3,9276123 | -48,03772
0 | -60,928345
1,6113281 | -65,76233
-0,20141602 | -38,671875
8,761597 | 12,689209
6,6467285 | 65,15808
1,9134521 | 92,34924
-3,7261963 | 116,72058
-5,9417725 | 108,66394
-5,2368164 | 109,87244
-10,977173 | 131,92749
-5,6396484 | 139,27917
-7,5531006 | 132,73315
-4,7332764 | 127,49634
-3,1219482 | 120,34607
1,3092041 | 134,44519
4,5318604 | 120,547485
-3,4240723 | 90,93933
-3,8269043 | 55,59082
-3,1219482 | 30,212402
-4,1290283 | 20,846558
-2,6184082 | 17,422485
-2,1148682 | 5,2368164
-10,574341 | -12,084961
-2,7191162 | -16,012573
-4,6325684 | -23,364258
-3,9276123 | -21,148682
-5,0354004 | -28,80249
0,40283203 | -34,744263
-2,7191162 | -46,627808
1,2084961 | -63,74817
-10,574341 | -88,52234
2,2155762 | -134,5459
-3,4240723 | -177,14539
-0,9063721 | -198,49548
1,0070801 | -215,71655
2,0141602 | -242,10205
-2,0141602 | -293,161
-2,2155762 | -348,85254
-0,9063721 | -387,323
-4,1290283 | -370,50476
0,60424805 | -365,9729
2,9205322 | -356,60706
0,80566406 | -344,01855
8,157349 | -288,62915
1,6113281 | -162,64343
5,1361084 | -56,69861
-2,0141602 | 13,494873
0,9063721 | 119,036865
4,1290283 | 256,7047
0,30212402 | 380,67627
-7,5531006 | 400,21362
3,6254883 | 396,48743
-5,4382324 | 414,11133
-7,3516846 | 442,30957
2,8198242 | 412,70142
-3,0212402 | 373,02246
-4,8339844 | 299,2035
-4,1290283 | 216,52222
-5,1361084 | 156,80237
-5,1361084 | 90,737915
-10,372925 | 74,72534
-3,0212402 | 64,75525
-6,1431885 | 61,532593
-7,0495605 | 47,332764
-0,9063721 | 25,881958
-11,581421 | 4,5318604
-3,5247803 | -18,429565
-7,7545166 | -40,98816
-6,2438965 | -43,40515
-8,963013 | -41,793823
-3,9276123 | -45,92285
-7,1502686 | -51,663208
-6,8481445 | -51,361084
-9,063721 | -53,07312
-0,70495605 | -38,067627
-2,9205322 | -22,961426
-3,9276123 | -1,7120361
5,5389404 | -19,335938
-3,8269043 | -41,793823
5,7403564 | -76,538086
7,1502686 | -99,09668
4,8339844 | -123,065186
2,8198242 | -149,14856
-3,7261963 | -141,09192
-6,4453125 | -81,170654
-1,3092041 | 4,3304443
-8,660889 | 34,34143
-8,761597 | 35,85205
-11,077881 | 25,579834
-11,782837 | -0,20141602
-9,164429 | -16,012573
-10,675049 | -32,125854
-6,0424805 | -38,269043
-4,1290283 | -29,608154
-9,063721 | 14,602661
-5,4382324 | 112,18872
-7,0495605 | 170,09583
-6,9488525 | 157,60803
-6,0424805 | 128,60413
-6,4453125 | 106,951904
-4,7332764 | 87,01172
-3,7261963 | 72,20764
-6,5460205 | 54,18091
-2,9205322 | 27,493286
0,50354004 | 1,9134521
-9,466553 | -22,558594
-2,0141602 | -53,375244
-7,4523926 | -58,20923
-6,7474365 | -64,05029
-4,5318604 | -75,027466
-2,7191162 | -77,645874
-5,3375244 | -56,497192
-1,5106201 | -39,779663
3,0212402 | -35,650635
-5,3375244 | -39,98108
-2,5177002 | -38,772583
-6,2438965 | -12,991333
-7,3516846 | -8,258057
-10,372925 | -16,012573
-7,7545166 | -27,392578
-5,7403564 | -23,062134
3,5247803 | -12,286377
-6,1431885 | -13,595581
-0,40283203 | -3,5247803
-6,3446045 | -9,567261
-2,6184082 | -12,185669
-0,70495605 | -21,148682
0,70495605 | -23,062134
-3,8269043 | -5,7403564
-2,2155762 | -0,9063721
-0,50354004 | -7,1502686
-1,6113281 | -38,772583
-2,1148682 | -67,17224
1,2084961 | -86,10535
2,3162842 | -96,17615
-1,4099121 | -92,65137
2,5177002 | -23,26355
-1,6113281 | 48,44055
-1,9134521 | 34,34143
-5,1361084 | -0,9063721
1,9134521 | -48,138428
-2,9205322 | -89,02588
0,9063721 | -104,13208
1,3092041 | -86,206055
0 | -65,963745
-2,3162842 | -97,58606
-1,5106201 | -114,30359
-12,387085 | -110,17456
-2,1148682 | -95,47119
-3,8269043 | -65,56091
-3,7261963 | -17,72461
-6,4453125 | 46,92993
-7,1502686 | 77,645874
-5,6396484 | 115,81421
-6,2438965 | 143,81104
-8,459473 | 140,18555
-8,056641 | 104,434204
-0,50354004 | 59,61914
-1,9134521 | 34,140015
-5,2368164 | 62,539673
-0,70495605 | 74,12109
-4,1290283 | 72,20764
-3,1219482 | 49,649048
1,9134521 | 35,147095
1,1077881 | 19,839478
-4,2297363 | 11,984253
-1,9134521 | 27,090454
-4,2297363 | 27,593994
-5,7403564 | 34,542847
-7,4523926 | 38,47046
-8,258057 | 32,629395
-4,7332764 | 21,450806
-2,9205322 | 25,78125
-3,1219482 | 26,687622
-3,7261963 | 8,560181
0,9063721 | 2,2155762
2,3162842 | -12,890625
-11,077881 | -23,867798
-9,667969 | -27,593994
-5,8410645 | -35,650635
-2,7191162 | -42,297363
2,1148682 | -44,311523
-4,1290283 | -54,281616
0,70495605 | -50,857544
-0,10070801 | -40,182495
2,1148682 | -34,44214
-3,6254883 | -50,152588
1,3092041 | -55,389404
1,3092041 | -50,253296
-5,1361084 | -50,152588
-6,7474365 | -49,749756
-11,984253 | -39,578247
-5,9417725 | -43,00232
-10,977173 | -40,182495
3,4240723 | -47,332764
1,8127441 | -41,290283
2,3162842 | -31,118774
-3,9276123 | -11,178589
-7,0495605 | -2,3162842
-5,3375244 | 0,60424805
-8,560181 | -5,8410645
-4,7332764 | -1,9134521
0,10070801 | 8,358765
-0,10070801 | 4,9346924
-6,3446045 | -10,775757
-8,459473 | -16,616821
-0,60424805 | -19,134521
-8,358765 | -0,10070801
-7,0495605 | 22,155762
-5,3375244 | 45,52002
-2,5177002 | 59,317017
-5,9417725 | 43,606567
-3,3233643 | 37,36267
-5,0354004 | 39,276123
-15,408325 | 14,804077
-6,6467285 | 4,9346924
-2,4169922 | -7,7545166
-3,8269043 | -38,269043
-5,1361084 | -71,40198
-4,7332764 | -75,22888
-2,5177002 | -66,56799
-3,5247803 | -53,878784
-2,6184082 | -34,542847
0 | -32,93152
-1,2084961 | -30,917358
-2,5177002 | -15,408325
-3,1219482 | -1,3092041
-9,567261 | 7,9559326
-16,21399 | -11,279297
-0,20141602 | -36,4563
1,4099121 | -46,02356
-2,3162842 | -35,046387
-0,9063721 | -27,996826
-1,0070801 | -33,132935
-5,2368164 | -34,643555
0,80566406 | -35,046387
1,2084961 | -24,169922
-7,3516846 | -0,10070801
-0,60424805 | 39,98108
-3,9276123 | 68,38074
-2,3162842 | 58,410645
4,3304443 | 37,060547
-1,5106201 | 28,399658
0,20141602 | 22,76001
2,8198242 | 24,069214
-1,8127441 | 34,140015
1,9134521 | 69,488525
-1,2084961 | 66,16516
-8,560181 | 44,815063
-5,5389404 | 31,924438
-1,7120361 | 38,772583
-1,0070801 | 57,504272
-6,9488525 | 66,16516
2,1148682 | 78,652954
-4,0283203 | 72,61047
4,6325684 | 58,813477
-6,3446045 | 36,254883
-5,1361084 | 18,328857
-3,7261963 | 8,660889
-5,1361084 | -5,3375244
-10,574341 | -15,609741
-12,890625 | -32,629395
-2,8198242 | -28,903198
1,6113281 | -30,31311
-6,4453125 | -36,95984
-1,7120361 | -54,18091
5,7403564 | -62,74109
-2,9205322 | -73,21472
-5,1361084 | -86,50818
-9,265137 | -86,40747
-1,3092041 | -81,37207
0,50354004 | -74,020386
-2,3162842 | -51,864624
-6,7474365 | -39,779663
0,70495605 | -25,378418
-9,970093 | -30,917358
-1,0070801 | -18,630981
-7,6538086 | -19,940186
-1,7120361 | 4,6325684
-4,5318604 | 24,673462
-3,5247803 | 48,843384
-5,8410645 | 44,0094
-9,265137 | 32,42798
-3,1219482 | 19,033813
-6,0424805 | 14,300537
-3,8269043 | -1,5106201
-11,581421 | -28,399658
-8,459473 | -39,276123
-14,300537 | -45,620728
-7,2509766 | -46,627808
-6,8481445 | -44,210815
-2,9205322 | -47,131348
-4,7332764 | -85,702515
-6,3446045 | -130,31616
0,50354004 | -150,65918
-1,8127441 | -165,26184
-0,30212402 | -181,87866
-2,7191162 | -194,56787
-5,6396484 | -141,59546
-1,5106201 | -36,254883
0,10070801 | 38,87329
11,581421 | 92,34924
-2,1148682 | 112,08801
2,6184082 | 126,38855
4,3304443 | 160,12573
2,1148682 | 171,30432
-2,3162842 | 141,39404
0,20141602 | 93,0542
4,5318604 | 32,42798
3,8269043 | -2,1148682
5,0354004 | -3,6254883
1,3092041 | -27,694702
-1,1077881 | -49,850464
-3,9276123 | -51,965332
-3,3233643 | -43,00232
-5,2368164 | -42,90161
-5,1361084 | 4,7332764
-11,380005 | 74,82605
-14,199829 | 105,03845
-13,293457 | 107,85828
-11,782837 | 90,43579
-7,3516846 | 83,08411
-9,466553 | 83,08411
-4,7332764 | 82,07703
-2,1148682 | 124,87793
-7,3516846 | 171,70715
-6,5460205 | 181,77795
-5,6396484 | 141,09192
-6,3446045 | 117,526245
-10,473633 | 80,26428
-3,6254883 | 57,302856
-1,1077881 | 30,514526
-2,3162842 | 12,286377
-4,6325684 | 15,509033
-4,3304443 | 10,675049
-0,40283203 | -2,4169922
-5,9417725 | -8,358765
-4,9346924 | 18,630981
0,50354004 | 44,41223
-3,7261963 | 61,331177
-4,1290283 | 50,958252
-0,50354004 | 6,7474365
-5,3375244 | -43,203735
-2,8198242 | -76,034546
-2,7191162 | -74,72534
-4,5318604 | -57,000732
-1,4099121 | -36,35559
-10,372925 | -34,84497
-4,7332764 | -44,815063
-1,5106201 | -54,382324
1,9134521 | -58,61206
0,60424805 | -61,935425
-4,2297363 | -60,62622
-9,164429 | -63,74817
-4,7332764 | -48,843384
-1,6113281 | -45,92285
-4,1290283 | -47,43347
-0,10070801 | -36,154175
-3,8269043 | -28,198242
2,2155762 | -12,890625
-0,20141602 | -1,1077881
-2,7191162 | 7,5531006
-5,8410645 | 8,459473
-5,9417725 | -14,904785
-5,2368164 | -32,83081
-4,3304443 | -27,593994
-2,0141602 | -7,1502686
-4,3304443 | 1,1077881
-3,0212402 | 20,645142
1,7120361 | 28,903198
-2,7191162 | 27,191162
-2,5177002 | 27,090454
5,9417725 | 37,765503
-11,782837 | 34,84497
-7,7545166 | 15,005493
0,9063721 | -0,30212402
4,4311523 | -37,765503
-0,9063721 | -47,03064
-4,6325684 | -23,565674
-12,185669 | -0,80566406
-11,279297 | 22,25647
-10,775757 | 24,371338
-6,2438965 | 18,026733
-4,1290283 | -10,977173
-2,4169922 | -54,0802
-4,4311523 | -76,33667
2,1148682 | -94,06128
7,7545166 | -104,23279
2,6184082 | -123,66943
0,50354004 | -142,90466
-4,1290283 | -144,91882
-5,1361084 | -131,72607
-0,60424805 | -125,079346
-4,3304443 | -122,25952
-3,2226562 | -128,40271
-4,3304443 | -115,41138
-3,9276123 | -80,06287
-2,6184082 | -40,88745
-1,4099121 | -36,557007
-4,3304443 | -47,836304
-1,5106201 | -1,1077881
-7,5531006 | 113,39722
-8,358765 | 157,50732
-5,7403564 | 153,57971
-8,761597 | 159,82361
-2,7191162 | 158,01086
-8,358765 | 122,15881
-6,4453125 | 93,65845
-4,7332764 | 64,65454
-0,60424805 | 31,924438
1,0070801 | -4,3304443
1,3092041 | -11,984253
0,70495605 | -7,1502686
4,6325684 | 1,4099121
-7,9559326 | 7,6538086
-5,1361084 | 24,77417
-2,6184082 | 7,3516846
-6,9488525 | -28,701782
-3,1219482 | -66,76941
-3,0212402 | -100,808716
-5,4382324 | -116,015625
-2,7191162 | -125,582886
-4,9346924 | -124,97864
-4,1290283 | -127,093506
-3,4240723 | -141,09192
-6,4453125 | -155,19104
-5,7403564 | -158,01086
-12,286377 | -147,53723
-5,8410645 | -145,52307
-3,6254883 | -142,099
-5,7403564 | -143,10608
-2,6184082 | -125,582886
0,10070801 | -78,048706
-3,7261963 | -7,7545166
-3,3233643 | 84,191895
5,5389404 | 161,13281
-3,1219482 | 224,67957
-6,3446045 | 241,09497
-10,372925 | 185,20203
-7,5531006 | 127,89917
-0,50354004 | 93,0542
-7,3516846 | 96,47827
-4,4311523 | 94,56482
-4,1290283 | 79,35791
-9,567261 | 60,827637
-4,5318604 | 25,881958
-5,1361084 | 6,4453125
-0,9063721 | -12,286377
0,50354004 | -25,78125
6,4453125 | -41,088867
-2,7191162 | -50,756836
0,80566406 | -66,36658
7,5531006 | -46,325684
9,768677 | 25,579834
5,7403564 | 92,44995
-0,9063721 | 111,18164
-1,4099121 | 44,311523
-3,0212402 | -6,9488525
-1,8127441 | -9,365845
2,6184082 | 8,963013
-5,3375244 | 24,572754
-2,6184082 | 89,730835
-4,3304443 | 168,78662
2,3162842 | 203,53088
1,1077881 | 171,20361
-2,9205322 | 125,38147
-3,0212402 | 83,88977
2,8198242 | 45,721436
-2,7191162 | 22,558594
-1,0070801 | 29,205322
-8,358765 | 15,509033
-5,7403564 | 5,7403564
-0,20141602 | -3,3233643
-0,40283203 | -12,789917
1,3092041 | 0,40283203
2,4169922 | 12,286377
0,70495605 | 2,7191162
3,0212402 | -7,5531006
-7,1502686 | -12,789917
-1,6113281 | -21,24939
-4,6325684 | -39,175415
-6,2438965 | -28,903198
-2,7191162 | -19,537354
-1,1077881 | -26,486206
-0,50354004 | -18,933105
-1,3092041 | -5,7403564
0,30212402 | 5,2368164
5,2368164 | 3,6254883
-1,3092041 | 0
1,6113281 | -11,682129
-2,5177002 | -34,44214
-6,4453125 | -40,88745
-5,7403564 | -37,564087
-2,5177002 | -22,860718
-3,5247803 | 17,72461
-3,9276123 | 58,007812
-4,6325684 | 72,509766
-6,4453125 | 46,42639
-8,358765 | 19,134521
-17,120361 | -6,3446045
-7,3516846 | -20,544434
-2,8198242 | -30,31311
-2,8198242 | -51,159668
-4,3304443 | -56,295776
-5,3375244 | -63,74817
-4,0283203 | -71,90552
-7,5531006 | -89,730835
-7,5531006 | -87,01172
-2,4169922 | -83,28552
-4,5318604 | -72,40906
-9,063721 | -47,836304
-6,0424805 | -37,86621
-4,9346924 | -35,046387
-0,9063721 | -46,92993
-3,2226562 | -58,20923
1,3092041 | -64,453125
1,7120361 | -58,914185
-0,70495605 | -51,864624
6,0424805 | -53,475952
0,60424805 | -59,820557
-0,10070801 | -58,410645
-2,1148682 | -63,848877
-1,2084961 | -66,76941
2,3162842 | -67,57507
2,4169922 | -55,08728
1,7120361 | -39,779663
-1,2084961 | -31,32019
-1,3092041 | -41,39099
-3,8269043 | -35,95276
-6,3446045 | 38,168335
-10,171509 | 154,98962
-10,977173 | 228,50647
-7,7545166 | 213,8031
-4,1290283 | 167,67883
-5,4382324 | 96,47827
-6,6467285 | 37,664795
-8,862305 | 1,1077881
-9,567261 | -29,30603
-8,761597 | -47,634888
-4,4311523 | -51,260376
-4,3304443 | -32,025146
4,0283203 | -31,924438
-2,3162842 | -45,620728
2,2155762 | -55,08728
-3,1219482 | -73,61755
-3,3233643 | -95,67261
3,0212402 | -109,67102
-4,4311523 | -119,74182
0,40283203 | -100,20447
1,9134521 | -26,78833
-4,6325684 | 36,35559
-0,60424805 | 39,98108
-2,1148682 | -6,2438965
-3,4240723 | -44,0094
-2,0141602 | -49,850464
2,1148682 | -34,039307
0,10070801 | 15,307617
-4,2297363 | 30,010986
-3,9276123 | 15,408325
-1,9134521 | 13,092041
-4,7332764 | -4,3304443
2,8198242 | -17,926025
-9,164429 | -12,890625
-4,4311523 | 8,862305
-1,2084961 | 56,497192
-4,3304443 | 73,013306
-5,9417725 | 74,82605
-3,7261963 | 72,20764
-3,1219482 | 57,403564
-2,3162842 | 43,203735
6,1431885 | 38,168335
-3,1219482 | 31,32019
0,70495605 | 14,199829
-3,1219482 | 0,10070801
-3,5247803 | -17,523193
-5,6396484 | -45,52002
-9,164429 | -60,525513
-6,9488525 | -39,37683
-5,2368164 | 16,415405
-8,560181 | 66,16516
-10,272217 | 88,32092
-8,056641 | 92,95349
-8,761597 | 59,61914
-8,660889 | 34,94568
-5,4382324 | 10,775757
-12,487793 | -10,372925
0,20141602 | -26,385498
-4,6325684 | -31,32019
-2,4169922 | -35,046387
-4,3304443 | -39,37683
-1,3092041 | -43,00232
0,50354004 | -55,18799
0,30212402 | -67,37366
-9,063721 | -76,84021
4,0283203 | -79,156494
-5,6396484 | -67,57507
2,5177002 | -61,029053
-6,0424805 | -54,0802
-1,4099121 | -45,822144
-5,2368164 | -42,196655
3,2226562 | -34,94568
-3,5247803 | -35,95276
0,10070801 | -32,025146
-4,7332764 | -2,4169922
-6,4453125 | 14,199829
-2,5177002 | 8,157349
-0,10070801 | -4,6325684
-3,8269043 | 1,1077881
-12,789917 | -4,3304443
-1,7120361 | -13,192749
-2,8198242 | -22,961426
-2,8198242 | -32,32727
1,1077881 | -46,325684
-3,4240723 | -62,539673
-7,3516846 | -87,213135
3,5247803 | -103,22571
-5,0354004 | -118,029785
1,3092041 | -126,9928
-2,7191162 | -124,37439
-3,3233643 | -78,45154
-2,7191162 | -67,8772
-3,4240723 | -67,17224
-0,30212402 | -69,992065
-2,5177002 | -77,34375
0,9063721 | -20,141602
-4,8339844 | 60,928345
-5,5389404 | 100,00305
-9,466553 | 173,11707
-8,560181 | 243,81409
-6,5460205 | 266,97693
-11,984253 | 234,04541
-6,3446045 | 175,13123
-6,7474365 | 105,944824
-11,581421 | 53,878784
-8,660889 | 8,258057
-3,9276123 | -23,76709
-10,272217 | -41,99524
-11,883545 | -37,664795
-8,963013 | -28,29895
-4,9346924 | -27,593994
-3,6254883 | -22,961426
-5,0354004 | -42,700195
1,2084961 | -45,217896
-6,6467285 | -57,504272
-4,4311523 | -41,592407
3,0212402 | -13,192749
-4,0283203 | 79,45862
4,0283203 | 207,15637
9,063721 | 263,45215
3,0212402 | 236,4624
-2,8198242 | 183,18787
-5,0354004 | 147,63794
-0,10070801 | 123,97156
-0,50354004 | 115,61279
2,8198242 | 97,58606
-3,1219482 | 72,40906
-8,358765 | 48,03772
-2,5177002 | 4,0283203
-6,7474365 | -50,958252
-0,30212402 | -79,86145
1,8127441 | -96,780396
-5,9417725 | -91,34216
-5,9417725 | -81,06995
-2,7191162 | -67,67578
0,10070801 | -60,525513
3,1219482 | -39,779663
0,70495605 | -56,19507
-4,3304443 | -110,980225
-4,3304443 | -164,45618
-5,1361084 | -202,72522
6,1431885 | -215,61584
-1,8127441 | -218,03284
-1,7120361 | -214,60876
-5,5389404 | -223,06824
2,6184082 | -220,34912
-2,7191162 | -220,65125
-1,5106201 | -201,41602
-0,9063721 | -184,7992
0,20141602 | -161,63635
1,7120361 | -135,35156
6,4453125 | -112,69226
-3,4240723 | -55,08728
-2,1148682 | 8,963013
-4,1290283 | 70,69702
-7,2509766 | 140,28625
-9,667969 | 202,62451
6,7474365 | 248,64807
-2,5177002 | 293,0603
-1,4099121 | 333,4442
2,1148682 | 330,8258
2,5177002 | 282,28455
0,9063721 | 209,87549
-0,20141602 | 146,83228
1,6113281 | 123,16589
4,8339844 | 93,65845
0,50354004 | 79,055786
-1,3092041 | 81,06995
-3,9276123 | 81,47278
3,4240723 | 48,44055
6,2438965 | 19,940186
-0,40283203 | -14,401245
-0,20141602 | -37,060547
-1,4099121 | -71,40198
3,0212402 | -103,62854
-2,2155762 | -126,9928
0,60424805 | -144,51599
0,80566406 | -156,80237
-1,4099121 | -187,4176
-4,3304443 | -201,2146
-4,2297363 | -220,24841
-8,056641 | -226,08948
0,20141602 | -213,50098
2,7191162 | -110,87952
-1,4099121 | 27,493286
0,10070801 | 122,76306
-3,5247803 | 200,20752
1,3092041 | 246,93604
-3,7261963 | 221,2555
-2,1148682 | 160,12573
3,5247803 | 108,966064
-8,157349 | 71,7041
-1,6113281 | 56,69861
-6,7474365 | 57,806396
-8,056641 | 48,94409
-8,358765 | 38,772583
-6,0424805 | 42,700195
-8,963013 | 44,41223
-2,1148682 | 42,39807
2,8198242 | 54,986572
-4,0283203 | 66,6687
-1,3092041 | 70,79773
0,80566406 | 38,87329
0,80566406 | 22,357178
-1,0070801 | 17,22107
-0,30212402 | 11,480713
-5,9417725 | 4,2297363
0,50354004 | 5,5389404
-7,2509766 | 13,897705
-0,30212402 | 13,796997
-5,8410645 | 3,4240723
-4,5318604 | -21,24939
0,20141602 | -38,47046
-1,8127441 | -51,864624
-7,5531006 | -66,26587
-6,7474365 | -86,30676
0,30212402 | -90,03296
-4,1290283 | -91,94641
-3,7261963 | -101,01013
3,3233643 | -96,67969
-2,1148682 | -99,298096
-2,5177002 | -97,787476
-2,5177002 | -103,72925
-1,1077881 | -100,6073
-1,3092041 | -104,13208
2,0141602 | -99,3988
3,7261963 | -90,13367
-2,0141602 | -88,0188
-2,7191162 | -76,84021
-1,8127441 | -57,10144
0,20141602 | -22,25647
-11,782837 | -5,1361084
-5,0354004 | 15,408325
-4,7332764 | 5,1361084
-0,80566406 | -8,358765
5,3375244 | -9,466553
-5,9417725 | 6,1431885
-5,3375244 | 10,977173
-2,3162842 | -8,761597
-5,3375244 | -38,671875
2,7191162 | -63,24463
2,0141602 | -52,972412
3,0212402 | -3,8269043
-0,9063721 | 57,806396
5,3375244 | 78,652954
0,30212402 | 80,26428
-0,30212402 | 66,87012
-2,0141602 | 38,87329
-0,9063721 | 23,26355
-3,7261963 | 15,509033
-4,6325684 | -6,8481445
1,2084961 | -19,839478
4,6325684 | -9,063721
5,3375244 | 17,22107
-3,5247803 | 75,93384
-3,9276123 | 130,92041
-5,1361084 | 114,80713
-4,2297363 | 73,21472
-5,8410645 | 29,205322
-2,2155762 | 2,3162842
-5,8410645 | -4,8339844
-9,164429 | 0,9063721
2,4169922 | 3,9276123
-3,7261963 | 4,9346924
-1,6113281 | -1,7120361
-2,2155762 | 2,7191162
-4,2297363 | 6,2438965
-17,422485 | 7,4523926
-10,574341 | -8,157349
-3,7261963 | -25,378418
-6,0424805 | -23,162842
-11,682129 | -1,9134521
-0,9063721 | 12,689209
-5,2368164 | 19,537354
-3,1219482 | 17,22107
-4,3304443 | 22,860718
-5,3375244 | 30,917358
-10,675049 | 28,80249
-1,0070801 | 25,479126
3,3233643 | 18,630981
0,50354004 | 12,890625
-1,9134521 | 12,286377
-4,8339844 | 2,8198242
19,73877 | -16,415405
2,2155762 | -19,638062
1,4099121 | -13,394165
2,9205322 | -6,4453125
-2,9205322 | -8,258057
-8,963013 | 7,4523926
-10,070801 | 13,595581
-11,682129 | -15,609741
-7,3516846 | -40,081787
-6,9488525 | -56,69861
-7,1502686 | -69,79065
-5,2368164 | -105,23987
-6,9488525 | -128,90625
-7,7545166 | -143,10608
-10,171509 | -141,89758
-11,581421 | -148,94714
-13,293457 | -123,87085
-1,9134521 | -77,645874
-3,6254883 | -68,481445
-0,30212402 | -73,41614
2,4169922 | -89,52942
-6,1431885 | -120,547485
-0,50354004 | -146,02661
-2,1148682 | -156,29883
-0,9063721 | -152,67334
-0,10070801 | -148,54431
1,6113281 | -153,68042
-1,0070801 | -153,98254
-1,8127441 | -125,28076
1,1077881 | -54,68445
-0,30212402 | 2,3162842
-1,8127441 | 29,608154
-5,3375244 | 47,53418
-2,9205322 | 137,86926
-1,4099121 | 270,09888
-1,9134521 | 292,55676
-7,8552246 | 253,28064
2,8198242 | 215,71655
-1,3092041 | 177,85034
-3,8269043 | 136,66077
-5,0354004 | 109,06677
-0,60424805 | 81,27136
-8,056641 | 84,2926
3,3233643 | 68,17932
1,5106201 | 56,497192
-5,0354004 | 62,539673
1,3092041 | 58,914185
-3,5247803 | 38,168335
-2,5177002 | 19,033813
-2,7191162 | -8,358765
1,1077881 | -26,687622
-4,0283203 | -47,53418
-1,5106201 | -59,1156
-3,1219482 | -54,0802
-1,9134521 | -49,346924
-3,9276123 | -26,385498
-3,7261963 | 14,199829
-0,9063721 | 47,232056
-0,50354004 | 61,12976
-2,9205322 | 53,878784
1,6113281 | 25,076294
1,8127441 | -0,50354004
-3,3233643 | 3,0212402
-4,1290283 | 4,2297363
-2,5177002 | -7,0495605
-3,0212402 | -15,509033
3,8269043 | -0,30212402
0,10070801 | 8,560181
-2,9205322 | 15,005493
-0,50354004 | 23,162842
-1,5106201 | 24,27063
-2,3162842 | 29,30603
-7,1502686 | 31,118774
-7,4523926 | 19,23523
-2,7191162 | 16,113281
-2,3162842 | 10,473633
2,7191162 | 13,394165
-4,1290283 | 13,998413
-10,574341 | 22,558594
-6,1431885 | 11,380005
-0,10070801 | 0,70495605
-3,8269043 | 9,164429
0,9063721 | 0,40283203
-5,1361084 | -21,350098
-8,056641 | -34,140015
-2,6184082 | -53,17383
-2,7191162 | -77,645874
-1,1077881 | -96,98181
2,1148682 | -107,85828
-1,0070801 | -109,3689
4,7332764 | -135,45227
9,164429 | -147,1344
0,20141602 | -154,18396
3,7261963 | -112,59155
3,7261963 | -41,793823
-5,9417725 | -3,2226562
-7,1502686 | -4,9346924
-2,5177002 | -15,811157
-9,063721 | -25,881958
-14,501953 | -54,58374
-6,6467285 | -75,73242
-17,422485 | -79,055786
-5,3375244 | -50,55542
-1,4099121 | 30,715942
-0,9063721 | 78,45154
5,7403564 | 81,37207
6,1431885 | 100,909424
-0,20141602 | 106,8512
3,7261963 | 87,11243
-0,70495605 | 64,65454
3,5247803 | 44,815063
0,20141602 | 20,443726
-0,50354004 | 52,56958
-0,9063721 | 86,30676
-3,0212402 | 85,60181
-9,768677 | 72,71118
-11,984253 | 61,834717
-19,033813 | 58,71277
-20,040894 | 50,656128
-16,71753 | 52,670288
-18,832397 | 68,68286
-13,595581 | 65,86304
-10,675049 | 39,678955
-2,4169922 | -14,703369
-2,8198242 | -72,509766
-7,5531006 | -137,46643
1,3092041 | -172,00928
5,1361084 | -180,16663
8,660889 | -140,7898
16,516113 | -97,18323
17,120361 | -76,7395
12,991333 | -97,283936
9,667969 | -135,25085
13,293457 | -141,29333
15,206909 | -138,07068
7,1502686 | -133,53882
6,6467285 | -128,80554
12,890625 | -118,33191
3,9276123 | -118,533325
1,2084961 | -108,56323
-1,4099121 | -74,62463
2,6184082 | -17,926025
-0,70495605 | 30,010986
-3,7261963 | 28,29895
3,4240723 | 0,80566406
-1,1077881 | -37,765503
2,5177002 | -100,40588
-2,3162842 | -135,25085
-2,2155762 | -155,59387
3,0212402 | -124,97864
3,4240723 | -5,2368164
-0,30212402 | 68,17932
-16,113281 | 53,07312
-6,9488525 | 5,7403564
-11,480713 | -20,343018
-4,3304443 | -28,500366
-2,8198242 | -26,78833
2,5177002 | -10,775757
3,4240723 | 7,1502686
8,560181 | 87,11243
7,5531006 | 192,15088
7,5531006 | 215,61584
2,7191162 | 225,68665
1,7120361 | 230,1178
-3,4240723 | 228,20435
-5,9417725 | 217,02576
-7,3516846 | 176,74255
0,10070801 | 107,75757
4,3304443 | 32,32727
2,5177002 | -9,970093
3,8269043 | -20,846558
3,8269043 | -0,40283203
5,3375244 | 12,185669
-1,6113281 | -13,796997
-0,70495605 | -28,903198
-6,7474365 | -51,05896
-3,1219482 | -83,28552
-4,3304443 | -106,64978
-7,5531006 | -72,61047
-21,450806 | -22,558594
-12,890625 | -15,911865
-13,696289 | 12,286377
-3,6254883 | 46,92993
1,6113281 | 47,836304
2,9205322 | 16,314697
1,8127441 | 0,30212402
3,3233643 | -4,4311523
6,7474365 | -1,9134521
-1,6113281 | 1,1077881
-2,6184082 | 1,9134521
-1,5106201 | 3,8269043
0,9063721 | -12,185669
1,4099121 | -16,314697
-2,5177002 | -6,2438965
-0,30212402 | 14,602661
-0,20141602 | 8,761597
-0,10070801 | 23,867798
1,1077881 | 28,198242
1,1077881 | 24,27063
9,768677 | 3,5247803
5,1361084 | -9,667969
-0,30212402 | -36,85913
-2,3162842 | -65,963745
2,4169922 | -97,38464
0,9063721 | -115,512085
3,4240723 | -92,752075
2,8198242 | -35,751343
0,40283203 | -9,667969
-2,5177002 | -4,1290283
-1,5106201 | -11,984253
-9,265137 | 27,392578
-8,258057 | 91,44287
-0,80566406 | 130,8197
-11,077881 | 118,533325
-8,258057 | 82,47986
-10,070801 | 45,01648
-18,22815 | 3,9276123
-10,473633 | -34,94568
-10,372925 | -67,57507
-8,862305 | -103,02429
-6,4453125 | -108,36182
-4,8339844 | -103,326416
-4,1290283 | -103,125
-6,5460205 | -90,13367
-5,9417725 | -22,457886
-8,862305 | 104,03137
-12,185669 | 179,15955
-15,911865 | 196,68274
-13,192749 | 147,94006
-9,567261 | 59,1156
-3,5247803 | -6,9488525
2,7191162 | -36,254883
5,5389404 | -60,324097
4,2297363 | -99,3988
10,775757 | -119,13757
9,265137 | -121,9574
4,0283203 | -103,829956
3,8269043 | -117,12341
1,3092041 | -141,29333
6,2438965 | -142,60254
3,0212402 | -113,29651
2,5177002 | -73,013306
6,1431885 | -77,44446
15,005493 | -108,26111
16,012573 | -88,220215
8,660889 | 6,8481445
5,1361084 | 88,52234
-5,9417725 | 122,25952
-4,7332764 | 147,33582
-6,7474365 | 114,30359
0,10070801 | 57,20215
-3,5247803 | 23,666382
-1,8127441 | 47,43347
0,10070801 | 72,61047
-2,3162842 | 121,45386
0 | 162,54272
-3,9276123 | 174,62769
-6,3446045 | 139,17847
-4,8339844 | 102,420044
-5,5389404 | 74,92676
-1,2084961 | 53,375244
-7,1502686 | 47,232056
-3,0212402 | 43,707275
-7,1502686 | 45,620728
-2,4169922 | 31,521606
-4,7332764 | 20,74585
-5,7403564 | 22,155762
-3,6254883 | 17,825317
-0,70495605 | 5,5389404
-5,9417725 | 5,3375244
0,70495605 | 1,4099121
-2,7191162 | -0,60424805
-3,6254883 | 1,6113281
-8,660889 | 16,415405
-9,365845 | 25,27771
-3,0212402 | 9,164429
-5,6396484 | -19,638062
-10,876465 | -30,615234
-6,7474365 | -34,34143
0,30212402 | -52,06604
-0,10070801 | -68,984985
-1,6113281 | -79,76074
1,1077881 | -93,35632
-4,2297363 | -113,29651
-5,5389404 | -128,50342
-3,1219482 | -143,71033
-2,7191162 | -133,74023
-1,3092041 | -140,99121
-1,2084961 | -142,60254
-0,80566406 | -128,10059
-0,10070801 | -71,502686
-4,9346924 | -13,696289
5,3375244 | -5,0354004
5,1361084 | -5,7403564
-4,0283203 | -7,2509766
1,6113281 | 5,3375244
6,7474365 | 30,715942
-3,0212402 | 70,999146
-0,10070801 | 102,72217
-0,20141602 | 104,333496
-9,567261 | 91,54358
-5,4382324 | 95,67261
-1,4099121 | 88,220215
7,3516846 | 64,05029
-1,0070801 | 43,707275
-1,8127441 | 29,80957
-4,7332764 | 24,27063
-7,4523926 | 3,3233643
1,7120361 | -5,8410645
-1,4099121 | -19,537354
2,6184082 | -14,804077
-5,7403564 | -2,3162842
-1,8127441 | 7,2509766
6,6467285 | 9,365845
-3,1219482 | 10,372925
-5,5389404 | 7,3516846
-4,9346924 | 6,4453125
-2,6184082 | 1,6113281
-2,3162842 | 0,30212402
-1,0070801 | 15,710449
-3,0212402 | 21,350098
0,80566406 | 25,076294
-8,560181 | 19,23523
-2,0141602 | 4,5318604
2,3162842 | -12,991333
-0,9063721 | -13,796997
-3,5247803 | -25,378418
4,5318604 | -25,27771
-0,70495605 | -26,687622
-5,5389404 | -31,420898
-1,1077881 | -30,514526
-7,3516846 | -34,94568
-4,3304443 | -44,613647
1,3092041 | -55,389404
-2,9205322 | -56,69861
-3,7261963 | -55,59082
0,70495605 | -60,827637
-0,50354004 | -58,410645
0,60424805 | -67,37366
-5,3375244 | -59,921265
-8,560181 | -57,10144
-9,063721 | -53,17383
-12,789917 | -45,620728
-4,7332764 | -45,41931
-12,890625 | -44,613647
-0,50354004 | -35,650635
-1,9134521 | -21,148682
-6,6467285 | -21,350098
-3,7261963 | -24,069214
-2,2155762 | -20,141602
-5,3375244 | -10,977173
-7,1502686 | 19,335938
-2,8198242 | 29,30603
-4,7332764 | 25,982666
-3,6254883 | 19,73877
1,9134521 | 10,977173
2,6184082 | 13,998413
-4,3304443 | 20,040894
-4,1290283 | 16,818237
-5,6396484 | 21,450806
-3,5247803 | 34,34143
-3,7261963 | 47,93701
-4,3304443 | 49,95117
-12,487793 | 45,620728
-10,977173 | 21,450806
-6,4453125 | -17,623901
6,2438965 | -32,32727
3,7261963 | -16,918945
-2,2155762 | 7,7545166
-13,293457 | 28,29895
-4,6325684 | 20,645142
-6,1431885 | -4,8339844
-5,2368164 | -17,623901
-2,4169922 | -32,730103
2,7191162 | -31,219482
-5,7403564 | -46,728516
1,3092041 | -61,23047
-8,660889 | -67,27295
-4,3304443 | -71,502686
-2,8198242 | -57,302856
-5,0354004 | -39,276123
-6,0424805 | -10,876465
-13,796997 | 9,365845
1,9134521 | 1,7120361
-6,9488525 | -10,473633
-5,3375244 | -24,472046
-2,5177002 | -13,897705
-1,5106201 | 8,157349
-2,1148682 | 14,703369
0,40283203 | 11,077881
-0,50354004 | 6,2438965
1,7120361 | 7,1502686
4,7332764 | 14,904785
2,9205322 | 19,73877
0,30212402 | 37,36267
-4,2297363 | 48,843384
0,50354004 | 39,578247
2,1148682 | -20,24231
-2,3162842 | -66,76941
-3,2226562 | -74,92676
-1,9134521 | -65,25879
1,1077881 | -71,60339
-1,1077881 | -71,20056
2,1148682 | -69,58923
1,8127441 | -70,29419
4,5318604 | -78,149414
2,7191162 | -89,12659
-1,0070801 | -61,431885
-1,9134521 | 35,34851
-8,459473 | 107,85828
-5,3375244 | 119,33899
-0,30212402 | 87,91809
-5,4382324 | 39,47754
0,10070801 | -1,1077881
-0,50354004 | -27,996826
2,0141602 | 3,5247803
2,9205322 | 28,80249
-3,8269043 | 27,694702
-2,7191162 | 5,9417725
-3,4240723 | -6,7474365
1,9134521 | -34,542847
-7,7545166 | -45,01648
-10,775757 | -47,735596
-13,595581 | -43,807983
-5,9417725 | -38,87329
1,4099121 | -32,025146
-1,8127441 | -22,457886
-5,6396484 | -13,796997
-1,0070801 | 26,687622
-5,5389404 | 67,37366
-1,3092041 | 84,49402
4,6325684 | 107,65686
10,775757 | 99,801636
-0,10070801 | 53,375244
0,70495605 | 22,457886
6,3446045 | 20,947266
1,3092041 | 63,345337
-5,7403564 | 132,22961
-3,8269043 | 170,70007
-5,2368164 | 143,50891
-3,0212402 | 124,17297
-4,4311523 | 137,86926
-6,2438965 | 142,70325
-9,567261 | 120,34607
-4,4311523 | 92,55066
-10,171509 | 72,30835
-3,7261963 | 45,822144
1,0070801 | 22,25647
-2,3162842 | 9,063721
-5,3375244 | -13,897705
-5,3375244 | -28,097534
-2,7191162 | -47,93701
-9,365845 | -57,10144
-5,4382324 | -56,295776
-1,2084961 | -34,44214
-3,2226562 | -15,206909
-1,4099121 | 5,4382324
-7,1502686 | -7,1502686
-5,0354004 | -34,643555
-2,8198242 | -51,260376
-0,70495605 | -69,08569
-3,3233643 | -78,25012
-9,164429 | -78,552246
-16,012573 | -75,83313
-4,3304443 | -74,020386
-13,394165 | -49,850464
-7,9559326 | -47,634888
-18,429565 | -40,786743
-18,026733 | -36,154175
-7,1502686 | -39,98108
-7,5531006 | -18,22815
-11,279297 | -11,782837
-7,3516846 | -0,30212402
-11,984253 | 47,232056
-3,4240723 | 85,09827
-5,3375244 | 108,66394
-4,3304443 | 110,476685
-13,192749 | 85,90393
-2,3162842 | 47,634888
-1,3092041 | -1,6113281
1,8127441 | -35,95276
3,6254883 | -58,61206
6,5460205 | -68,78357
-0,80566406 | -85,09827
2,2155762 | -120,7489
-1,2084961 | -155,79529
-2,2155762 | -194,87
-5,9417725 | -213,40027
2,1148682 | -237,46948
-4,1290283 | -275,63782
-5,1361084 | -327,70386
-4,1290283 | -363,65662
13,696289 | -375,33875
-0,40283203 | -351,16882
-4,2297363 | -329,81873
-3,9276123 | -316,8274
-7,3516846 | -237,06665
-3,1219482 | -112,28943
-3,9276123 | -71,09985
-2,3162842 | -44,91577
-0,80566406 | 41,189575
-3,0212402 | 197,68982
-7,3516846 | 365,26794
-4,1290283 | 429,41895
-9,365845 | 390,44495
-8,056641 | 279,1626
2,1148682 | 172,81494
-10,574341 | 139,27917
-9,164429 | 158,11157
-4,5318604 | 196,58203
-5,8410645 | 203,12805
-9,164429 | 195,97778
-5,5389404 | 232,93762
3,4240723 | 288,62915
-14,804077 | 307,05872
-6,9488525 | 268,78967
-10,171509 | 210,17761
-5,1361084 | 168,28308
-13,998413 | 139,5813
-12,387085 | 117,42554
-7,6538086 | 101,815796
-3,1219482 | 83,38623
-2,5177002 | 65,25879
-5,1361084 | 54,18091
-4,3304443 | 37,86621
-6,7474365 | 29,406738
-0,20141602 | 15,710449
5,0354004 | 2,3162842
-6,9488525 | -15,811157
-5,5389404 | -23,464966
-1,1077881 | -33,233643
-3,2226562 | -32,32727
-5,0354004 | -40,686035
-5,1361084 | -40,585327
-10,272217 | -47,03064
-17,321777 | -52,871704
-5,1361084 | -57,20215
-5,8410645 | -59,61914
-2,1148682 | -67,27295
-3,7261963 | -65,05737
-12,084961 | -60,525513
-4,1290283 | -59,921265
-4,9346924 | -52,166748
2,6184082 | -43,606567
4,4311523 | -35,751343
6,6467285 | -37,664795
1,8127441 | -28,80249
2,3162842 | -24,975586
-0,60424805 | -28,500366
3,0212402 | -12,185669
2,8198242 | -14,703369
-1,2084961 | 0,30212402
-4,1290283 | 1,1077881
-0,9063721 | 2,4169922
2,7191162 | 2,3162842
4,8339844 | 18,530273
2,3162842 | 30,31311
2,9205322 | 37,564087
0,20141602 | 29,507446
-2,9205322 | 19,436646
-5,1361084 | 17,422485
-4,9346924 | -5,8410645
-2,5177002 | -14,602661
-2,1148682 | -15,509033
-0,70495605 | -23,666382
-1,8127441 | -33,33435
1,6113281 | -41,693115
0,9063721 | -41,4917
-1,8127441 | -44,613647
-2,3162842 | -32,93152
-2,5177002 | -42,297363
-2,9205322 | -54,885864
-9,466553 | -66,970825
-4,2297363 | -68,58215
0,10070801 | -65,25879
-3,5247803 | -70,19348
-0,30212402 | -66,26587
2,9205322 | -68,28003
-2,1148682 | -72,81189
-2,1148682 | -69,79065
-4,1290283 | -67,8772
-2,0141602 | -65,963745
-0,70495605 | -68,78357
5,5389404 | -61,029053
-2,3162842 | -61,431885
0,50354004 | -62,036133
5,3375244 | -55,993652
1,1077881 | -54,281616
-2,9205322 | -60,827637
-5,4382324 | -52,468872
-6,3446045 | -30,212402
-0,80566406 | -16,113281
3,0212402 | -25,378418
-0,70495605 | -27,694702
-1,9134521 | -26,28479
1,4099121 | -20,846558
3,3233643 | -5,8410645
3,7261963 | -1,7120361
1,8127441 | 4,5318604
2,7191162 | -4,3304443
12,084961 | -4,5318604
4,3304443 | -12,789917
-1,2084961 | -19,940186
-0,10070801 | -16,21399
1,3092041 | 0,70495605
5,7403564 | 21,350098
3,3233643 | 36,758423
2,2155762 | 17,422485
-0,40283203 | -26,687622
-4,2297363 | -58,511353
-4,2297363 | -62,841797
-5,4382324 | -51,864624
-15,206909 | -48,641968
-3,2226562 | -23,062134
-5,1361084 | 42,49878
-4,6325684 | 140,58838
-7,2509766 | 186,61194
-10,473633 | 150,15564
-10,372925 | 83,28552
-7,1502686 | 47,232056
-11,077881 | 10,574341
-6,9488525 | -13,796997
-10,775757 | -33,032227
-9,063721 | -42,800903
-9,164429 | -34,039307
-11,077881 | -20,040894
-3,5247803 | -20,24231
-2,7191162 | 0,9063721
-2,7191162 | 25,680542
-7,2509766 | 26,486206
-7,8552246 | 12,387085
-6,1431885 | -2,8198242
-9,567261 | -7,1502686
-4,7332764 | -5,3375244
-4,7332764 | -5,7403564
-5,3375244 | -16,616821
8,660889 | -27,996826
1,0070801 | -17,120361
-0,9063721 | -13,897705
-1,5106201 | 2,3162842
-0,30212402 | 12,185669
-3,5247803 | 41,088867
-7,5531006 | 118,33191
-2,6184082 | 162,2406
0,70495605 | 153,3783
-7,3516846 | 91,64429
-3,5247803 | 35,85205
5,9417725 | 3,5247803
-6,4453125 | -29,708862
-1,8127441 | -50,253296
-2,5177002 | -59,1156
-5,7403564 | -68,28003
-6,3446045 | -50,55542
-0,80566406 | -22,155762
-2,9205322 | -16,71753
-2,7191162 | -22,055054
-4,8339844 | -28,701782
-5,5389404 | -30,413818
-0,20141602 | -26,889038
-4,3304443 | -26,687622
2,5177002 | -31,924438
-2,4169922 | -31,118774
-4,8339844 | -28,097534
-1,1077881 | -22,860718
-0,60424805 | -14,300537
-9,667969 | -8,862305
-7,4523926 | -6,6467285
-3,5247803 | 1,7120361
-9,466553 | 0,40283203
-3,0212402 | 5,9417725
-0,20141602 | 9,567261
-0,10070801 | 8,963013
-4,9346924 | 9,667969
-4,3304443 | 7,2509766
-4,7332764 | 2,8198242
-0,9063721 | -0,10070801
-1,4099121 | 1,1077881
4,1290283 | -6,3446045
-0,10070801 | 15,206909
1,1077881 | 34,240723
0,70495605 | 34,039307
-2,8198242 | 23,062134
1,6113281 | 13,394165
-3,4240723 | -1,1077881
1,0070801 | -14,401245
-4,8339844 | -29,205322
0,10070801 | -37,564087
-11,380005 | -70,29419
-3,7261963 | -105,54199
-3,5247803 | -133,3374
-0,70495605 | -129,20837
1,0070801 | -127,79846
-1,1077881 | -153,57971
-1,3092041 | -170,59937
0,70495605 | -180,06592
0,80566406 | -195,87708
-0,70495605 | -210,98328
0,10070801 | -206,04858
-2,4169922 | -208,36487
-0,70495605 | -204,53796
1,0070801 | -191,1438
4,0283203 | -166,36963
2,3162842 | -104,63562
1,7120361 | 10,372925
-5,0354004 | 111,08093
-0,60424805 | 169,7937
0 | 183,6914
3,6254883 | 215,41443
-1,6113281 | 243,41125
-2,1148682 | 224,47815
-0,70495605 | 175,73547
0,10070801 | 132,33032
-2,6184082 | 94,86694
1,4099121 | 69,68994
5,9417725 | 57,504272
-5,1361084 | 44,110107
-3,8269043 | 34,744263
-1,6113281 | 46,728516
-8,258057 | 52,468872
-9,567261 | 54,281616
-10,977173 | 96,276855
-11,883545 | 154,38538
-11,883545 | 158,31299
-9,869385 | 140,68909
-3,0212402 | 94,16199
-3,8269043 | 30,615234
-2,4169922 | 1,7120361
-0,70495605 | 13,092041
-2,9205322 | 37,060547
-1,2084961 | 31,018066
-2,1148682 | 28,29895
-1,3092041 | 23,162842
-6,2438965 | 2,9205322
-2,6184082 | -10,977173
-2,3162842 | -20,74585
5,4382324 | -23,666382
-0,9063721 | -33,737183
-5,0354004 | -37,765503
2,3162842 | -39,37683
-5,9417725 | -47,53418
-7,3516846 | -56,295776
0,9063721 | -47,836304
-8,157349 | -54,986572
-8,761597 | -55,892944
-8,560181 | -42,599487
-7,1502686 | -28,701782
-7,9559326 | -6,7474365
-3,6254883 | 8,358765
-5,7403564 | 16,616821
-3,6254883 | 5,5389404
1,1077881 | -14,300537
-4,7332764 | -24,975586
1,0070801 | -23,162842
5,5389404 | -9,567261
5,7403564 | -9,970093
3,4240723 | -25,076294
0,40283203 | -47,43347
-2,7191162 | -70,29419
-10,876465 | -69,1864
-10,775757 | -62,841797
-8,560181 | -28,29895
-0,70495605 | 16,516113
-0,9063721 | 30,917358
-5,4382324 | 17,825317
-1,1077881 | 7,2509766
-4,1290283 | -1,1077881
-3,4240723 | -5,1361084
7,2509766 | -1,1077881
-5,1361084 | 8,963013
2,3162842 | 0,80566406
0,9063721 | -9,869385
-3,5247803 | -34,94568
-1,9134521 | -69,28711
0,10070801 | -108,05969
-7,9559326 | -127,597046
-10,775757 | -146,63086
-12,689209 | -142,60254
-13,293457 | -139,27917
-11,178589 | -135,65369
-19,335938 | -105,84412
-16,616821 | -7,0495605
-23,162842 | 69,79065
-16,71753 | 81,27136
-9,265137 | 39,779663
-6,2438965 | -10,775757
-1,1077881 | -37,86621
3,6254883 | -43,90869
0,30212402 | -36,557007
10,372925 | -27,996826
14,199829 | -35,751343
5,0354004 | -57,302856
1,5106201 | -42,90161
9,970093 | 26,184082
8,157349 | 104,13208
3,3233643 | 198,59619
8,560181 | 253,68347
10,070801 | 239,28223
2,3162842 | 170,80078
1,1077881 | 103,02429
1,1077881 | 44,613647
2,9205322 | 11,279297
3,4240723 | -15,609741
5,3375244 | -56,19507
5,9417725 | -105,03845
6,0424805 | -147,94006
-4,4311523 | -165,56396
1,1077881 | -200,71106
-2,4169922 | -213,90381
6,5460205 | -175,63477
0,70495605 | -129,20837
-3,5247803 | -103,22571
-7,7545166 | -47,836304
-8,761597 | 62,64038
-5,3375244 | 120,7489
-8,056641 | 99,298096
-0,60424805 | 34,039307
-7,5531006 | -23,76709
-5,3375244 | -66,36658
-5,1361084 | -69,58923
1,9134521 | -22,357178
2,9205322 | 56,09436
-0,10070801 | 122,25952
-6,9488525 | 124,97864
-5,6396484 | 104,23279
-4,5318604 | 77,142334
-6,5460205 | 59,417725
-4,9346924 | 42,700195
-7,0495605 | 1,0070801
-5,2368164 | -53,67737
-6,7474365 | -68,78357
-6,2438965 | 11,984253
-3,2226562 | 90,5365
-0,80566406 | 147,94006
7,4523926 | 145,62378
6,6467285 | 124,575806
-3,1219482 | 149,45068
6,9488525 | 177,54822
2,7191162 | 185,40344
-0,70495605 | 167,57812
-3,5247803 | 136,25793
-10,775757 | 108,05969
-5,1361084 | 78,75366
1,0070801 | 53,67737
-5,0354004 | 42,39807
1,2084961 | 70,19348
1,5106201 | 79,45862
-5,1361084 | 61,23047
-3,2226562 | 27,392578
0,10070801 | 7,3516846
-2,4169922 | -0,30212402
-0,9063721 | 6,6467285
-3,3233643 | 10,372925
-7,3516846 | -2,5177002
-4,5318604 | -17,22107
-9,567261 | -31,32019
-2,1148682 | -45,318604
-6,2438965 | -55,892944
-6,8481445 | -70,69702
-2,1148682 | -80,4657
-0,20141602 | -80,06287
-5,0354004 | -52,468872
-1,3092041 | -34,140015
-2,7191162 | -25,881958
-3,1219482 | -24,77417
-6,2438965 | -25,881958
-1,9134521 | -35,650635
-9,265137 | -19,839478
-3,0212402 | -19,638062
-4,4311523 | -26,889038
-1,0070801 | -23,666382
1,2084961 | -16,314697
-0,60424805 | 1,3092041
-4,1290283 | -3,1219482
-0,80566406 | -18,630981
1,7120361 | -18,127441
-2,8198242 | -15,609741
1,8127441 | -22,860718
-4,6325684 | -31,622314
-1,1077881 | -38,772583
1,4099121 | -49,54834
-3,1219482 | -63,446045
3,9276123 | -47,634888
7,3516846 | -35,247803
-1,5106201 | -48,339844
-2,6184082 | -67,57507
2,3162842 | -56,09436
-3,5247803 | -45,41931
-3,9276123 | -64,35242
-1,2084961 | -78,149414
-4,7332764 | -72,81189
-4,1290283 | -40,686035
0 | 19,839478
10,574341 | 51,864624
-4,3304443 | 37,060547
-2,1148682 | 13,595581
-4,7332764 | -12,487793
-0,9063721 | -27,996826
-3,1219482 | -35,95276
0 | -35,549927
-7,5531006 | -26,889038
-0,10070801 | -2,2155762
-4,8339844 | 15,307617
-9,365845 | 37,060547
-5,0354004 | 23,76709
-7,1502686 | 14,199829
-8,157349 | 9,667969
-5,7403564 | 3,9276123
-11,581421 | -13,897705
-12,084961 | -30,111694
-9,567261 | -52,267456
-7,7545166 | -59,820557
-5,0354004 | -56,09436
-3,7261963 | -43,807983
-2,1148682 | -34,140015
-7,5531006 | -29,30603
-2,5177002 | -23,26355
-3,7261963 | -10,372925
4,4311523 | -4,3304443
-6,0424805 | -0,9063721
-1,8127441 | 10,675049
-4,0283203 | 64,151
-6,5460205 | 111,18164
-4,8339844 | 97,787476
-4,7332764 | 42,800903
-1,8127441 | -0,70495605
-7,5531006 | -37,161255
-4,6325684 | -59,417725
-3,9276123 | -57,000732
-1,2084961 | -64,05029
-1,3092041 | -80,86853
2,9205322 | -88,92517
4,6325684 | -84,49402
-1,8127441 | -95,16907
-2,3162842 | -105,23987
-6,3446045 | -104,03137
-8,157349 | -128,2013
-0,9063721 | -153,78113
-6,6467285 | -164,05334
-2,5177002 | -152,57263
-4,6325684 | -82,88269
4,2297363 | 78,652954
-5,5389404 | 230,82275
-4,5318604 | 273,22083
7,5531006 | 224,07532
-1,9134521 | 154,58679
-1,5106201 | 106,04553
-2,4169922 | 68,28003
-3,1219482 | 52,267456
-10,675049 | 51,361084
-3,6254883 | 51,5625
-2,0141602 | 48,03772
-0,10070801 | 43,90869
0,30212402 | 51,260376
-6,7474365 | 62,13684
-1,5106201 | 59,014893
-9,466553 | 36,254883
1,6113281 | 19,23523
-0,70495605 | -0,70495605
-0,9063721 | -3,3233643
-2,2155762 | 19,638062
-2,7191162 | 41,592407
-2,3162842 | 60,324097
-5,7403564 | 53,375244
1,7120361 | 29,205322
1,4099121 | 9,365845
-5,7403564 | -5,7403564
-3,3233643 | -30,514526
3,5247803 | -51,663208
0,80566406 | -71,502686
-0,9063721 | -75,93384
-5,9417725 | -78,552246
0,50354004 | -88,62305
-7,8552246 | -91,54358
-4,3304443 | -78,048706
-0,10070801 | -85,29968
-3,6254883 | -92,34924
-1,0070801 | -118,13049
0,20141602 | -149,45068
0,9063721 | -165,26184
1,0070801 | -167,37671
1,0070801 | -147,2351
8,258057 | -103,22571
-3,5247803 | -62,841797
-4,2297363 | -56,900024
-6,3446045 | -72,20764
11,380005 | -82,07703
6,7474365 | -73,11401
-4,9346924 | -19,23523
-5,9417725 | 89,52942
-12,185669 | 184,09424
-8,459473 | 221,2555
-9,567261 | 199,9054
-7,3516846 | 165,66467
-7,3516846 | 167,276
-4,5318604 | 165,76538
-13,092041 | 142,1997
2,8198242 | 101,71509
1,1077881 | 58,410645
3,9276123 | 35,549927
-1,4099121 | 17,019653
-0,10070801 | 2,2155762
-1,5106201 | -12,588501
7,2509766 | -11,883545
1,1077881 | -1,3092041
-2,5177002 | 13,494873
0,9063721 | 6,7474365
-1,9134521 | -2,7191162
0,20141602 | -20,544434
-3,1219482 | -32,730103
-7,9559326 | -40,081787
-7,3516846 | 6,4453125
-4,4311523 | 33,535767
1,4099121 | 40,98816
6,0424805 | 24,673462
17,422485 | 9,768677
6,9488525 | -8,963013
0,50354004 | -27,191162
-1,7120361 | -31,723022
0,30212402 | -43,606567
-7,8552246 | -49,850464
-2,2155762 | -40,38391
-7,7545166 | -26,486206
-11,581421 | -17,22107
-5,7403564 | -21,148682
-3,9276123 | -16,616821
2,9205322 | -12,789917
9,768677 | 6,0424805
-0,10070801 | 23,666382
4,3304443 | 19,033813
-1,1077881 | 26,889038
0,30212402 | 37,564087
-0,50354004 | 37,564087
-5,6396484 | 33,132935
-4,7332764 | 21,853638
-4,8339844 | 25,579834
-0,30212402 | 23,26355
1,4099121 | 20,343018
-3,1219482 | 22,357178
-1,5106201 | 27,191162
-0,9063721 | 15,811157
1,1077881 | 9,365845
-4,6325684 | 0,80566406
-5,1361084 | 2,4169922
-3,9276123 | -0,9063721
-6,1431885 | -14,099121
-9,063721 | -36,154175
-4,3304443 | -50,253296
-1,6113281 | -58,813477
-2,3162842 | -60,928345
1,0070801 | -64,956665
-3,1219482 | -58,71277
-4,7332764 | -51,5625
1,4099121 | -62,13684
-2,7191162 | -65,05737
-0,60424805 | -73,61755
-2,7191162 | -83,58765
-2,7191162 | -86,30676
-5,1361084 | -92,752075
-2,9205322 | -74,2218
-5,9417725 | -45,41931
-1,2084961 | -21,551514
-1,3092041 | 2,7191162
-1,6113281 | -0,9063721
-2,2155762 | -9,567261
-0,10070801 | -26,78833
-8,258057 | -24,673462
-0,30212402 | -28,903198
-3,5247803 | -19,134521
-6,3446045 | -3,6254883
-3,1219482 | 23,968506
-8,560181 | 52,972412
-10,372925 | 41,189575
-8,358765 | 8,459473
-1,3092041 | -20,846558
-0,20141602 | -52,871704
0,40283203 | -74,020386
4,9346924 | -102,420044
0,70495605 | -118,33191
3,5247803 | -132,53174
-8,056641 | -142,90466
-1,1077881 | -136,86218
0,9063721 | -154,18396
-0,80566406 | -204,53796
-7,5531006 | -236,05957
8,963013 | -238,47656
0,80566406 | -249,0509
1,1077881 | -254,0863
-0,50354004 | -221,15479
0,70495605 | -111,78589
-2,3162842 | 86,30676
-4,2297363 | 230,62134
-4,8339844 | 271,6095
-8,258057 | 265,56702
-8,761597 | 239,08081
-4,3304443 | 205,0415
-5,3375244 | 212,09106
-2,2155762 | 246,5332
-5,7403564 | 247,03674
-3,9276123 | 216,42151
-0,10070801 | 167,98096
-8,560181 | 124,575806
-3,1219482 | 84,09119
-6,0424805 | 50,656128
-6,9488525 | 42,297363
-7,6538086 | 53,475952
-6,3446045 | 66,56799
-9,466553 | 63,446045
-11,581421 | 48,44055
-6,2438965 | 42,297363
-6,1431885 | 34,84497
1,2084961 | 28,097534
-11,782837 | 18,630981
-3,7261963 | 12,789917
-1,7120361 | 1,9134521
1,8127441 | -2,5177002
3,9276123 | -6,1431885
-2,8198242 | -7,5531006
-6,5460205 | -11,682129
-10,372925 | -7,2509766
-0,20141602 | 8,660889
-6,7474365 | 28,097534
-6,9488525 | 52,368164
-2,6184082 | 75,631714
-10,574341 | 75,22888
-2,3162842 | 67,57507
-2,0141602 | 81,97632
-4,4311523 | 81,87561
-1,5106201 | 40,786743
-6,3446045 | 24,27063
-6,4453125 | 46,224976
-1,6113281 | 30,413818
-1,1077881 | -5,8410645
-2,8198242 | -47,131348
0,40283203 | -52,670288
1,7120361 | -74,92676
-1,9134521 | -79,96216
-12,387085 | -98,59314
-0,9063721 | -108,56323
0,80566406 | -100,70801
3,5247803 | -89,02588
4,3304443 | -77,948
0,10070801 | -75,93384
5,5389404 | -66,6687
-0,80566406 | -62,841797
-4,1290283 | -71,7041
-4,1290283 | -38,168335
-1,5106201 | -13,494873
-7,9559326 | 12,991333
-2,0141602 | 23,062134
-0,40283203 | 27,29187
-1,4099121 | 30,413818
0,30212402 | 10,574341
0,50354004 | 9,667969
4,5318604 | 19,033813
-1,2084961 | 30,715942
-1,1077881 | 26,486206
-0,50354004 | 35,85205
-7,1502686 | 32,730103
-5,5389404 | 15,408325
-0,50354004 | 12,890625
-2,1148682 | 9,466553
0,60424805 | 0,60424805
-6,7474365 | -11,581421
-0,10070801 | -13,192749
-5,1361084 | -18,73169
-0,60424805 | -24,975586
-2,1148682 | -28,198242
-4,8339844 | -32,226562
11,279297 | -34,34143
-6,5460205 | -28,500366
-3,5247803 | 4,5318604
-2,3162842 | -4,1290283
-6,2438965 | -18,832397
-3,8269043 | -18,630981
-4,1290283 | -21,24939
-3,4240723 | -39,37683
-5,2368164 | -63,14392
-3,9276123 | -70,79773
-3,2226562 | -64,85596
-1,3092041 | -51,05896
1,7120361 | -36,154175
1,7120361 | -17,926025
8,761597 | -18,429565
4,3304443 | -20,443726
-0,9063721 | -13,796997
-2,2155762 | -7,3516846
-3,9276123 | 2,3162842
2,3162842 | 7,1502686
-2,6184082 | 8,862305
-0,9063721 | 5,3375244
0,50354004 | 8,660889
-1,7120361 | 1,7120361
-1,8127441 | 1,1077881
-1,3092041 | -3,6254883
0,30212402 | -0,30212402
-0,20141602 | 3,5247803
-5,1361084 | -8,358765
-4,3304443 | -21,24939
-1,2084961 | -28,500366
-3,2226562 | -30,111694
-0,9063721 | -34,94568
-5,9417725 | -41,592407
-7,7545166 | -8,560181
-7,8552246 | 36,95984
-13,192749 | 64,75525
-13,494873 | 54,986572
-10,372925 | 31,521606
-10,473633 | 14,804077
-5,7403564 | 32,93152
-1,2084961 | 20,040894
-5,4382324 | 3,8269043
-6,1431885 | -21,450806
-0,30212402 | -34,84497
-0,10070801 | -42,297363
-4,9346924 | -48,641968
-0,9063721 | -49,95117
-2,3162842 | -54,0802
1,4099121 | -45,721436
-1,1077881 | -38,168335
-5,1361084 | -34,34143
-9,667969 | -43,807983
-9,567261 | -55,288696
-2,5177002 | -54,68445
-6,9488525 | -50,253296
-8,358765 | -36,85913
-1,3092041 | -27,29187
-0,40283203 | -30,212402
6,0424805 | -41,99524
0,70495605 | -60,62622
-0,60424805 | -61,73401
3,0212402 | -61,532593
-2,4169922 | -71,40198
3,4240723 | -84,49402
-0,10070801 | -106,448364
0,20141602 | -122,86377
-5,7403564 | -134,34448
-4,0283203 | -147,73865
-2,8198242 | -123,065186
-1,6113281 | -26,889038
-8,862305 | 95,16907
-7,6538086 | 124,575806
0,10070801 | 127,093506
-5,2368164 | 130,51758
-5,7403564 | 131,42395
-9,365845 | 170,49866
-4,1290283 | 213,8031
-6,6467285 | 201,51672
-1,3092041 | 161,83777
-3,9276123 | 117,32483
-8,157349 | 92,752075
-5,9417725 | 58,71277
-11,380005 | 32,42798
-3,0212402 | 10,574341
1,8127441 | 4,3304443
-1,6113281 | -15,911865
-18,832397 | -33,233643
-9,466553 | -42,196655
-7,7545166 | -49,649048
-13,595581 | -47,735596
-1,9134521 | -36,758423
-0,60424805 | -20,443726
-3,2226562 | -22,155762
-5,0354004 | -24,77417
-6,6467285 | -34,140015
-2,0141602 | -29,104614
-3,5247803 | -25,27771
-5,3375244 | -23,666382
-12,487793 | -18,630981
-4,4311523 | -18,933105
-2,5177002 | -21,652222
-5,3375244 | -36,053467
-7,7545166 | -47,232056
-8,358765 | -31,723022
-8,358765 | -22,558594
-6,8481445 | -20,947266
-2,3162842 | -17,120361
-3,7261963 | -13,796997
-1,9134521 | -2,0141602
-6,5460205 | 17,321777
-0,30212402 | 16,516113
-5,2368164 | 13,998413
-3,1219482 | -0,10070801
-0,9063721 | -13,998413
-2,8198242 | -37,261963
-9,667969 | -42,196655
-5,9417725 | -46,124268
2,7191162 | -50,857544
-4,7332764 | -15,811157
-10,372925 | 24,472046
-11,581421 | 38,47046
-12,689209 | 52,06604
-8,963013 | 48,742676
-10,574341 | 47,43347
-8,157349 | 66,36658
-5,6396484 | 65,76233
-10,473633 | 51,05896
-5,7403564 | 33,33435
-10,775757 | 22,25647
-6,0424805 | 10,272217
1,4099121 | -13,796997
-1,8127441 | -31,118774
-0,30212402 | -17,926025
-1,8127441 | -9,466553
3,8269043 | -5,7403564
-1,8127441 | -4,7332764
-4,8339844 | 5,8410645
-3,1219482 | 8,056641
-8,258057 | 19,033813
-5,1361084 | 14,602661
-1,4099121 | 3,4240723
0,10070801 | 4,3304443
-0,9063721 | 3,6254883
-6,0424805 | 11,380005
-8,157349 | 8,358765
-3,4240723 | 8,358765
-3,0212402 | -0,20141602
-1,8127441 | 22,055054
-1,0070801 | 27,392578
-3,0212402 | 34,94568
-5,6396484 | 44,613647
-7,1502686 | 33,233643
-7,1502686 | 8,358765
-4,5318604 | -3,4240723
-10,574341 | -14,401245
-1,4099121 | -44,210815
-2,3162842 | -49,850464
0,10070801 | -23,162842
0,70495605 | 26,78833
-4,0283203 | 21,047974
-1,8127441 | 3,8269043
-1,7120361 | -30,81665
4,5318604 | -46,124268
1,4099121 | -64,55383
0,30212402 | -58,20923
0,80566406 | -50,05188
-1,9134521 | -52,267456
-0,30212402 | -69,79065
4,6325684 | -63,949585
-0,20141602 | -63,14392
-3,7261963 | -69,1864
-2,9205322 | -83,184814
-0,40283203 | -49,95117
-6,8481445 | -15,408325
-10,574341 | -8,157349
-7,2509766 | 12,689209
-4,3304443 | 20,040894
-15,911865 | 18,429565
-8,056641 | 20,040894
-2,3162842 | 12,185669
-0,10070801 | 10,272217
-1,4099121 | 18,22815
3,3233643 | 24,472046
-5,9417725 | 40,98816
-1,3092041 | 37,664795
-8,862305 | 46,5271
-10,876465 | 46,224976
-5,0354004 | 40,98816
-0,50354004 | 40,686035
1,1077881 | 31,723022
-0,30212402 | 24,975586
0,30212402 | 22,659302
-4,1290283 | 24,472046
-0,50354004 | 29,30603
1,6113281 | 18,429565
-0,9063721 | -0,80566406
-2,2155762 | -18,630981
-9,365845 | -41,4917
-10,171509 | -58,007812
-6,0424805 | -73,516846
-0,9063721 | -64,956665
-0,60424805 | -63,546753
-8,258057 | -44,714355
1,9134521 | -19,134521
-0,30212402 | 2,1148682
16,113281 | -16,71753
-3,5247803 | -45,620728
-2,6184082 | -66,36658
1,6113281 | -64,75525
-11,380005 | -69,992065
-7,1502686 | -69,488525
-1,2084961 | -67,977905
-3,7261963 | -59,317017
2,6184082 | -37,664795
1,3092041 | -38,067627
1,5106201 | -40,48462
-3,8269043 | -33,737183
-0,10070801 | -30,010986
2,1148682 | -10,372925
3,7261963 | -7,1502686
5,3375244 | 6,4453125
4,1290283 | 33,737183
3,9276123 | 67,977905
-0,10070801 | 93,35632
-5,5389404 | 91,64429
-4,6325684 | 68,984985
-5,0354004 | 51,361084
0,50354004 | 37,765503
-1,0070801 | 18,22815
0 | 8,963013
-1,7120361 | 1,9134521
4,5318604 | -4,3304443
-6,5460205 | -1,5106201
-1,5106201 | -19,335938
-2,1148682 | -18,630981
3,8269043 | -30,514526
-6,5460205 | -9,063721
-1,2084961 | 27,191162
-2,5177002 | 49,246216
-3,0212402 | 64,05029
-10,574341 | 44,51294
-8,157349 | 9,667969
-11,581421 | -0,9063721
-9,567261 | -4,1290283
-7,6538086 | -16,71753
-1,1077881 | -29,708862
0,60424805 | -45,52002
-1,1077881 | -64,05029
-3,3233643 | -61,532593
1,7120361 | -52,267456
-0,9063721 | -46,5271
0,50354004 | -67,37366
-2,8198242 | -92,95349
-4,7332764 | -132,73315
-1,5106201 | -161,83777
-4,6325684 | -177,44751
-3,6254883 | -182,08008
-8,358765 | -187,82043
-3,1219482 | -206,55212
-7,0495605 | -225,48523
-0,60424805 | -233,13904
6,4453125 | -226,49231
4,6325684 | -218,53638
-1,9134521 | -209,57336
2,7191162 | -146,42944
-0,10070801 | 2,7191162
2,0141602 | 88,62305
4,4311523 | 102,21863
1,7120361 | 101,312256
4,8339844 | 84,09119
0,80566406 | 64,956665
0,20141602 | 128,90625
-9,063721 | 217,83142
-7,3516846 | 277,24915
-5,5389404 | 286,51428
-7,1502686 | 269,79675
-1,5106201 | 244,31763
-6,6467285 | 244,61975
-4,3304443 | 224,57886
-2,7191162 | 187,3169
-0,10070801 | 164,7583
-4,0283203 | 170,49866
0,9063721 | 182,2815
2,6184082 | 162,44202
-2,6184082 | 126,18713
-2,4169922 | 94,66553
-4,2297363 | 63,14392
-0,30212402 | 57,806396
-14,199829 | 42,39807
-4,6325684 | 51,461792
0,40283203 | 66,970825
-7,7545166 | 53,57666
10,171509 | 42,196655
-2,9205322 | 32,93152
-3,3233643 | 9,365845
-0,70495605 | -27,694702
-3,8269043 | -47,03064
0,40283203 | -44,311523
0,80566406 | -2,3162842
-3,9276123 | 35,046387
-11,883545 | 39,074707
-2,5177002 | 19,033813
-1,7120361 | -9,869385
-0,9063721 | -12,185669
-2,6184082 | -18,127441
-3,7261963 | -7,3516846
-4,9346924 | 4,8339844
-0,70495605 | 1,1077881
2,3162842 | -20,443726
-2,7191162 | -23,867798
-5,0354004 | -34,44214
2,1148682 | -50,152588
-5,3375244 | -77,645874
3,9276123 | -92,04712
1,7120361 | -113,80005
-7,1502686 | -133,94165
-0,50354004 | -148,84644
-0,9063721 | -162,94556
-5,9417725 | -140,58838
-1,2084961 | -41,088867
-1,8127441 | 14,300537
4,1290283 | -1,6113281
-1,9134521 | -47,131348
3,2226562 | -79,559326
-2,3162842 | -107,05261
0,70495605 | -113,90076
1,3092041 | -101,51367
1,9134521 | -50,857544
4,8339844 | 57,20215
-0,20141602 | 137,66785
-3,4240723 | 125,7843
-5,6396484 | 77,24304
-7,5531006 | 15,811157
0,50354004 | -41,39099
-1,5106201 | -103,22571
-3,5247803 | -152,06909
-2,9205322 | -177,54822
-2,8198242 | -196,38062
0,50354004 | -218,8385
0,40283203 | -215,41443
-1,5106201 | -198,29407
-0,60424805 | -158,21228
-10,171509 | -153,57971
1,7120361 | -150,15564
-0,10070801 | -139,17847
-1,6113281 | -133,03528
4,9346924 | -110,980225
2,9205322 | -56,497192
9,869385 | 29,104614
-0,50354004 | 116,015625
0 | 262,9486
2,3162842 | 407,3639
-5,5389404 | 467,38586
-1,1077881 | 462,9547
-0,30212402 | 411,79504
-8,560181 | 335,6598
-6,9488525 | 288,0249
0,9063721 | 251,97144
0,10070801 | 201,3153
-3,8269043 | 148,24219
-9,164429 | 91,94641
-6,1431885 | 25,378418
-10,775757 | -24,77417
-10,775757 | -41,693115
-5,4382324 | -35,34851
-5,8410645 | -38,36975
-2,7191162 | -36,657715
4,9346924 | -44,815063
-3,6254883 | -48,138428
-7,5531006 | -43,00232
-6,8481445 | -40,686035
-10,675049 | -40,686035
1,3092041 | -21,551514
-2,4169922 | -5,7403564
-3,2226562 | -12,588501
-5,9417725 | -27,593994
-5,7403564 | -23,062134
-8,258057 | -23,162842
-10,171509 | -12,890625
-4,1290283 | -9,567261
-5,1361084 | 6,1431885
-5,5389404 | -0,70495605
-6,5460205 | -13,092041
0,70495605 | -26,486206
-14,703369 | -33,9386
-5,9417725 | -20,24231
-2,5177002 | 22,659302
1,3092041 | 51,5625
-8,258057 | 65,56091
-4,0283203 | 50,152588
-2,2155762 | 32,83081
-3,6254883 | 26,989746
-5,9417725 | 10,574341
-1,7120361 | -5,7403564
-12,185669 | -22,961426
-7,1502686 | -30,212402
-6,7474365 | -31,622314
-6,7474365 | -33,737183
-2,3162842 | -48,94409
-5,2368164 | -59,921265
0,50354004 | -67,07153
-10,272217 | -57,806396
-5,9417725 | -43,203735
-8,660889 | -54,382324
-1,5106201 | -67,977905
1,4099121 | -68,78357
-3,4240723 | -83,08411
-5,4382324 | -88,220215
0,20141602 | -83,78906
-0,50354004 | -74,2218
-5,8410645 | -65,963745
-7,8552246 | -60,424805
-6,4453125 | -66,6687
-1,2084961 | -70,3949
2,3162842 | -69,992065
3,8269043 | -58,61206
2,6184082 | -44,110107
-5,1361084 | -31,118774
-8,157349 | -21,75293
2,4169922 | 1,4099121
-4,9346924 | 25,78125
-6,9488525 | 29,003906
0 | 14,804077
-2,1148682 | 17,22107
1,2084961 | 9,970093
-0,9063721 | 19,436646
5,5389404 | 31,32019
0,70495605 | 30,413818
-4,5318604 | 34,44214
1,2084961 | 28,097534
-0,30212402 | 23,26355
-0,80566406 | 17,825317
-3,9276123 | 17,926025
-2,3162842 | 13,394165
0,30212402 | -2,8198242
-0,10070801 | -10,977173
-10,775757 | -22,055054
-8,459473 | -41,290283
-9,567261 | -46,124268
-7,1502686 | -37,161255
-7,1502686 | -32,528687
-11,279297 | -23,968506
-14,199829 | -28,097534
-6,7474365 | -40,48462
-4,3304443 | -49,44763
0,10070801 | -58,10852
3,3233643 | -67,37366
-4,0283203 | -65,3595
-4,7332764 | -62,539673
-0,40283203 | -55,288696
-1,9134521 | -51,461792
-2,9205322 | -46,627808
-7,8552246 | -50,454712
-0,70495605 | -48,641968
0,70495605 | -41,592407
-0,30212402 | -19,638062
1,1077881 | -1,3092041
-4,7332764 | 19,033813
-3,6254883 | 15,408325
-5,0354004 | 16,314697
-4,1290283 | 14,401245
-10,171509 | 10,876465
-7,1502686 | 17,825317
-2,9205322 | 21,652222
-10,473633 | 41,89453
-4,1290283 | 55,389404
-8,862305 | 57,60498
-7,2509766 | 48,641968
-3,7261963 | 38,571167
-0,10070801 | 20,141602
-2,1148682 | 2,7191162
5,6396484 | -7,6538086
-8,358765 | -4,7332764
0,30212402 | -11,178589
2,3162842 | 7,1502686
2,6184082 | 23,76709
-0,60424805 | 15,206909
-3,7261963 | 0,60424805
-6,4453125 | -24,77417
-8,157349 | -41,290283
-5,6396484 | -55,08728
-1,5106201 | -61,834717
1,1077881 | -58,410645
-2,6184082 | -45,620728
-3,5247803 | -35,650635
-11,077881 | -30,413818
-11,782837 | -39,175415
-7,2509766 | -53,17383
-6,7474365 | -65,56091
-0,70495605 | -63,949585
-9,164429 | -69,38782
-2,9205322 | -42,90161
-1,5106201 | -32,83081
-2,9205322 | -30,715942
-3,9276123 | -32,125854
-3,9276123 | -26,586914
2,7191162 | -10,272217
1,1077881 | -1,6113281
-1,1077881 | 0,50354004
-8,963013 | -0,30212402
2,1148682 | 4,9346924
-0,60424805 | 10,876465
-1,3092041 | -0,50354004
-3,5247803 | -9,970093
-3,4240723 | -20,24231
-5,7403564 | -33,132935
2,1148682 | -62,338257
3,6254883 | -85,40039
-0,30212402 | -94,96765
0,60424805 | -52,770996
4,5318604 | 43,606567
1,6113281 | 105,6427
0,10070801 | 96,98181
0 | 55,892944
4,9346924 | 11,782837
-0,60424805 | -35,046387
-4,5318604 | -65,86304
2,3162842 | -78,45154
-2,2155762 | -79,156494
-8,963013 | -64,151
-0,70495605 | -58,914185
-7,6538086 | -55,59082
-1,6113281 | -32,125854
-3,8269043 | 11,077881
-6,1431885 | 105,03845
1,8127441 | 165,26184
-1,3092041 | 168,28308
-5,3375244 | 126,79138
-4,8339844 | 106,8512
-1,9134521 | 135,25085
-8,258057 | 139,98413
-6,2438965 | 132,22961
-4,1290283 | 95,37048
4,9346924 | 57,302856
-5,1361084 | 26,385498
-0,60424805 | 8,258057
-3,1219482 | 22,25647
-2,7191162 | 35,549927
-0,60424805 | 28,29895
0,40283203 | 16,616821
-4,2297363 | -18,933105
-0,80566406 | -38,067627
-1,3092041 | -26,889038
0,9063721 | -23,867798
-2,8198242 | -27,896118
0,80566406 | -29,30603
0,10070801 | -29,507446
1,7120361 | -43,304443
5,9417725 | -49,850464
2,4169922 | -53,274536
-1,9134521 | -61,935425
-8,258057 | -61,532593
-3,1219482 | -64,05029
-4,2297363 | -73,61755
-2,5177002 | -75,73242
-3,2226562 | -82,177734
-5,4382324 | -38,47046
-7,7545166 | 46,5271
-6,0424805 | 93,15491
-3,8269043 | 94,16199
-9,667969 | 124,77722
-6,0424805 | 143,91174
-6,0424805 | 116,015625
-5,8410645 | 78,95508
-10,574341 | 66,56799
-5,1361084 | 51,461792
3,9276123 | 24,874878
-4,4311523 | 34,44214
-0,50354004 | 27,191162
-5,8410645 | 33,33435
-3,1219482 | 31,32019
-3,0212402 | 7,5531006
0,10070801 | -18,026733
-2,3162842 | -41,99524
-4,7332764 | -50,354004
-3,8269043 | -40,182495
4,1290283 | -23,062134
-5,3375244 | -26,385498
0,40283203 | -17,623901
-3,9276123 | -36,35559
-2,5177002 | -50,857544
-5,4382324 | -53,07312
-7,9559326 | -51,260376
-10,574341 | -57,20215
-7,9559326 | -65,05737
-4,7332764 | -68,88428
-7,5531006 | -80,06287
-3,2226562 | -83,48694
-2,7191162 | -37,664795
2,3162842 | 68,17932
0,10070801 | 123,16589
-2,4169922 | 114,80713
-1,1077881 | 82,27844
0,50354004 | 35,95276
0,20141602 | -2,8198242
-0,70495605 | -39,88037
-2,5177002 | -50,454712
-1,8127441 | -62,539673
-1,8127441 | -54,986572
0,60424805 | -34,84497
-3,1219482 | -15,106201
0 | 4,7332764
-6,1431885 | 14,904785
-7,7545166 | 35,95276
-1,8127441 | 53,57666
-8,459473 | 58,410645
-9,365845 | 57,70569
1,8127441 | 53,475952
-1,1077881 | 50,958252
3,2226562 | 50,05188
-6,0424805 | 32,226562
-11,984253 | -2,9205322
-6,7474365 | -36,35559
-9,970093 | -55,993652
-10,473633 | -55,993652
-10,977173 | -57,60498
-2,3162842 | -60,12268
-1,0070801 | -60,72693
2,3162842 | -31,82373
1,0070801 | 25,378418
0,9063721 | 72,006226
-3,6254883 | 108,66394
-2,7191162 | 108,66394
-9,567261 | 84,79614
-7,1502686 | 61,331177
-6,0424805 | 52,267456
-4,5318604 | 44,311523
-2,8198242 | 36,35559
-5,1361084 | 40,686035
-5,0354004 | 29,608154
-1,2084961 | 17,926025
-1,5106201 | 5,1361084
-4,1290283 | -13,092041
-8,963013 | -32,528687
-5,5389404 | -61,331177
-2,5177002 | -71,502686
-1,1077881 | -78,95508
0,80566406 | -73,21472
0,10070801 | -72,20764
-10,775757 | -54,68445
-5,9417725 | -65,963745
-8,761597 | -103,72925
-5,0354004 | -135,65369
-6,9488525 | -123,2666
-8,459473 | -111,8866
-9,164429 | -127,697754
-4,9346924 | -140,58838
-4,7332764 | -101,51367
-4,5318604 | -36,35559
-10,675049 | -21,350098
-7,2509766 | -17,825317
-2,7191162 | 12,991333
-0,30212402 | 18,832397
0,50354004 | -12,789917
0,9063721 | -36,557007
-4,1290283 | -41,693115
-3,5247803 | -44,714355
-3,8269043 | -67,17224
-4,3304443 | -91,94641
-3,5247803 | -96,8811
-0,60424805 | -105,6427
-8,963013 | -101,61438
-5,9417725 | -102,11792
-2,9205322 | -100,808716
1,8127441 | -72,006226
-5,7403564 | 2,1148682
-4,3304443 | 110,07385
-2,5177002 | 182,2815
-8,761597 | 229,11072
-0,9063721 | 249,65515
-2,8198242 | 239,38293
-3,9276123 | 207,5592
-3,1219482 | 167,57812
-3,8269043 | 139,48059
7,1502686 | 115,7135
-0,30212402 | 88,92517
-5,6396484 | 46,5271
-7,0495605 | -3,1219482
-9,063721 | -23,666382
-4,3304443 | -31,118774
-8,358765 | -34,34143
-1,0070801 | -45,01648
-1,9134521 | -52,06604
-8,862305 | -49,246216
-1,8127441 | -25,27771
-2,0141602 | 6,1431885
-7,1502686 | 19,436646
-13,192749 | -2,1148682
-11,178589 | -32,226562
-8,560181 | -52,670288
-0,80566406 | -77,545166
-3,2226562 | -93,35632
0,10070801 | -97,88818
-0,10070801 | -72,71118
1,6113281 | 0,80566406
-4,3304443 | 110,476685
-7,1502686 | 148,94714
-12,588501 | 119,33899
-7,7545166 | 80,86853
-8,560181 | 63,74817
-6,1431885 | 39,98108
-7,3516846 | 46,325684
-6,2438965 | 52,468872
-6,8481445 | 48,44055
-0,70495605 | 38,974
-0,70495605 | 23,565674
-5,7403564 | 13,293457
-0,10070801 | 3,5247803
-4,6325684 | -1,1077881
5,9417725 | 5,5389404
2,3162842 | 19,940186
2,9205322 | 53,878784
4,9346924 | 53,979492
6,2438965 | 48,641968
7,2509766 | 25,177002
3,9276123 | 2,9205322
-1,5106201 | -5,6396484
-1,7120361 | -15,106201
-5,9417725 | -22,76001
-4,6325684 | -39,175415
-9,667969 | -42,90161
-0,20141602 | -64,453125
-1,3092041 | -82,177734
-6,4453125 | -87,91809
-4,3304443 | -90,5365
-1,2084961 | -99,70093
-7,1502686 | -100,00305
-1,9134521 | -97,68677
-6,0424805 | -76,638794
-5,4382324 | -29,30603
-1,7120361 | -0,70495605
-4,8339844 | -3,5247803
-6,7474365 | -11,581421
-6,3446045 | -25,881958
-4,6325684 | -31,018066
-6,7474365 | -36,95984
-7,3516846 | -48,54126
-2,4169922 | -57,70569
-7,2509766 | -53,878784
-7,7545166 | -37,564087
0,50354004 | -3,3233643
-6,6467285 | 7,1502686
-0,20141602 | 17,926025
2,1148682 | 34,34143
1,1077881 | 80,76782
-10,272217 | 118,93616
2,3162842 | 107,85828
-4,4311523 | 84,2926
-0,20141602 | 74,020386
-14,199829 | 65,3595
-9,869385 | 49,0448
-0,40283203 | 36,4563
2,3162842 | 42,599487
1,2084961 | 20,947266
-2,5177002 | -10,675049
1,0070801 | -38,47046
-4,1290283 | -55,490112
2,1148682 | -68,984985
-1,4099121 | -74,020386
0,70495605 | -80,163574
-0,30212402 | -81,87561
10,574341 | -90,5365
2,4169922 | -97,98889
3,2226562 | -94,3634
4,0283203 | -101,01013
-3,0212402 | -116,519165
-1,5106201 | -128,2013
-3,3233643 | -129,20837
-0,10070801 | -128,50342
-2,6184082 | -84,89685
-2,5177002 | -13,394165
-4,2297363 | 5,6396484
-2,6184082 | 8,862305
-0,70495605 | 6,0424805
4,5318604 | 12,588501
3,5247803 | 82,58057
4,9346924 | 103,02429
2,5177002 | 86,40747
2,1148682 | 61,029053
-0,9063721 | 49,44763
-4,3304443 | 55,389404
3,2226562 | 40,686035
7,1502686 | 45,52002
4,7332764 | 42,90161
7,2509766 | 37,161255
2,5177002 | 36,053467
-0,9063721 | 47,735596
-7,9559326 | 74,72534
-2,7191162 | 100,6073
-5,2368164 | 99,19739
-5,5389404 | 95,5719
1,7120361 | 90,33508
0,9063721 | 66,56799
-5,3375244 | 58,007812
-3,5247803 | 32,83081
-2,5177002 | 31,521606
-5,5389404 | 6,5460205
-0,20141602 | -27,29187
-6,2438965 | -65,15808
-4,5318604 | -103,125
-3,8269043 | -146,42944
-7,9559326 | -200,50964
-2,9205322 | -210,58044
-1,8127441 | -203,7323
-0,70495605 | -158,5144
-3,7261963 | -46,02356
-2,5177002 | 42,39807
-7,3516846 | 71,80481
-7,3516846 | 43,90869
-6,1431885 | -17,623901
-7,3516846 | -65,963745
-0,60424805 | -84,09119
1,9134521 | -73,11401
-7,0495605 | -78,85437
-3,7261963 | -69,79065
-3,9276123 | -16,314697
-11,883545 | 34,744263
-2,4169922 | 17,019653
0,70495605 | 1,6113281
-8,358765 | 2,0141602
-5,4382324 | 34,240723
0,10070801 | 55,59082
-0,30212402 | 46,5271
-1,2084961 | 37,46338
-7,0495605 | 43,606567
-0,10070801 | 63,14392
-1,3092041 | 92,95349
1,4099121 | 105,23987
1,6113281 | 93,96057
-1,8127441 | 73,21472
-2,1148682 | 56,497192
-0,70495605 | 30,31311
-10,171509 | 0,80566406
-4,1290283 | -25,579834
-7,9559326 | -40,38391
0,40283203 | -48,641968
-0,70495605 | -64,65454
-1,6113281 | -68,68286
-1,4099121 | -90,234375
-5,2368164 | -101,412964
-7,7545166 | -100,20447
1,7120361 | -94,3634
1,4099121 | -75,027466
-2,7191162 | -44,110107
-3,8269043 | 19,436646
-3,5247803 | 81,57349
-5,2368164 | 104,837036
4,9346924 | 91,241455
2,7191162 | 72,006226
1,7120361 | 50,253296
-0,10070801 | 19,335938
3,4240723 | 0,30212402
-1,5106201 | 1,0070801
-0,9063721 | -5,4382324
4,1290283 | -28,29895
11,077881 | -39,88037
0,40283203 | -40,88745
-5,7403564 | -40,98816
-1,5106201 | -45,117188
1,8127441 | -51,260376
2,7191162 | -56,396484
-1,5106201 | -44,91577
1,0070801 | -30,111694
3,8269043 | -30,212402
-1,2084961 | -43,40515
-0,10070801 | -30,010986
-0,10070801 | -4,3304443
-1,8127441 | 6,7474365
0,60424805 | -12,286377
-2,1148682 | -24,673462
-5,0354004 | -9,164429
-1,0070801 | 44,210815
-5,7403564 | 94,46411
-1,7120361 | 117,92908
-4,2297363 | 120,64819
-8,056641 | 104,23279
-6,8481445 | 90,737915
-8,963013 | 80,56641
-8,761597 | 55,993652
-12,789917 | 37,261963
-6,6467285 | -6,3446045
-2,1148682 | -41,592407
-2,7191162 | -69,38782
0,70495605 | -62,64038
-0,30212402 | -45,01648
1,4099121 | -38,36975
1,3092041 | -31,118774
2,2155762 | -21,652222
6,8481445 | -28,903198
3,6254883 | -56,396484
8,258057 | -71,7041
1,3092041 | -84,09119
-4,7332764 | -88,723755
-1,7120361 | -72,71118
3,7261963 | -48,641968
-6,5460205 | -59,014893
-3,9276123 | -63,446045
-2,1148682 | -72,81189
-2,2155762 | -71,40198
-3,2226562 | -56,19507
-0,40283203 | -41,39099
-7,3516846 | -16,71753
-9,365845 | 63,848877
-10,171509 | 142,60254
-7,3516846 | 165,06042
-10,171509 | 163,4491
-4,7332764 | 139,37988
-2,8198242 | 103,930664
-2,4169922 | 76,034546
-2,4169922 | 52,468872
-2,2155762 | 32,528687
-3,1219482 | 17,019653
-5,5389404 | 1,9134521
-5,5389404 | -4,0283203
8,560181 | -26,184082
2,5177002 | -43,606567
0,9063721 | -61,532593
-4,2297363 | -69,1864
-3,9276123 | -89,730835
-3,3233643 | -94,3634
0,50354004 | -96,98181
-1,1077881 | -104,63562
-4,5318604 | -99,70093
0 | -91,241455
-4,0283203 | -81,06995
-3,1219482 | -61,431885
-1,8127441 | -35,650635
-10,574341 | 20,24231
-2,9205322 | 94,3634
-5,9417725 | 115,41138
-9,164429 | 99,90234
-5,6396484 | 67,57507
-1,1077881 | 40,585327
-4,1290283 | 16,113281
-10,675049 | 12,185669
-5,6396484 | -0,9063721
-4,3304443 | -13,394165
-7,2509766 | -20,846558
1,1077881 | -5,3375244
-4,8339844 | -2,3162842
-1,6113281 | -2,3162842
-3,1219482 | -2,9205322
2,6184082 | -6,6467285
-0,9063721 | -4,6325684
1,9134521 | -14,804077
-9,466553 | -22,357178
-8,560181 | -19,839478
-8,157349 | -15,811157
-9,164429 | -9,768677
-9,265137 | -9,365845
-8,157349 | -20,443726
-12,084961 | -38,974
-9,869385 | -59,1156
-4,7332764 | -48,94409
-10,473633 | -27,593994
2,5177002 | -16,314697
-2,7191162 | -27,29187
-2,3162842 | -31,219482
0,9063721 | -48,339844
-5,7403564 | -81,87561
0,10070801 | -106,34766
1,3092041 | -106,14624
-5,1361084 | -46,02356
-2,1148682 | 58,410645
-6,6467285 | 107,65686
-4,0283203 | 97,38464
2,3162842 | 78,25012
1,3092041 | 50,05188
3,4240723 | 26,989746
2,2155762 | 6,7474365
1,8127441 | 5,6396484
4,1290283 | 16,516113
-5,9417725 | 3,7261963
-1,9134521 | -9,970093
-3,0212402 | -10,675049
-7,1502686 | 0,40283203
-3,5247803 | 18,429565
2,0141602 | 20,343018
-4,2297363 | 12,185669
-6,1431885 | 23,867798
-1,6113281 | 28,701782
-3,6254883 | 36,95984
5,5389404 | 20,74585
-0,10070801 | 10,272217
-7,8552246 | 14,703369
-0,9063721 | 2,3162842
1,6113281 | -6,1431885
2,9205322 | -11,279297
-2,6184082 | -15,811157
-7,9559326 | -22,457886
-0,60424805 | -25,378418
-1,7120361 | -38,269043
1,9134521 | -44,311523
-9,869385 | -63,043213
-4,9346924 | -69,58923
-3,9276123 | -51,361084
-4,3304443 | -25,479126
-5,7403564 | -29,910278
-4,7332764 | -41,189575
-9,164429 | -16,21399
-10,775757 | -10,977173
-1,3092041 | 2,7191162
-2,7191162 | 21,350098
-4,7332764 | 40,585327
0,60424805 | 27,593994
-7,4523926 | 25,680542
-5,3375244 | 26,083374
-9,869385 | 19,033813
-1,3092041 | 2,3162842
1,3092041 | -8,358765
2,6184082 | -10,574341
-1,5106201 | 17,422485
-6,0424805 | 31,82373
0,10070801 | 44,815063
-0,30212402 | 48,843384
-2,5177002 | 34,94568
0,70495605 | 20,74585
-1,6113281 | 1,7120361
2,6184082 | -5,7403564
-5,0354004 | 2,2155762
-0,9063721 | 5,9417725
-5,1361084 | 18,026733
-2,9205322 | 19,436646
-6,8481445 | 19,436646
0,10070801 | 33,33435
-5,0354004 | 36,85913
-3,7261963 | 31,521606
-9,567261 | 19,839478
-1,6113281 | 17,623901
-12,387085 | -3,4240723
-6,1431885 | -5,5389404
2,3162842 | -9,365845
-0,9063721 | -5,1361084
5,2368164 | 19,537354
4,6325684 | 32,83081
-11,178589 | 39,37683
-3,2226562 | 18,429565
-3,0212402 | 10,272217
0,30212402 | -15,811157
-3,1219482 | -43,707275
-5,7403564 | -62,74109
-5,6396484 | -52,871704
-1,5106201 | -45,117188
-4,5318604 | -49,749756
0 | -58,511353
-3,7261963 | -57,20215
-3,4240723 | -60,12268
-0,70495605 | -56,5979
2,9205322 | -56,69861
6,4453125 | -47,634888
0,80566406 | -34,240723
-3,3233643 | -55,490112
-3,8269043 | -59,71985
-3,1219482 | -39,98108
-6,9488525 | -21,853638
-3,9276123 | -22,055054
-6,8481445 | -16,616821
-2,9205322 | 10,977173
3,0212402 | 56,09436
1,1077881 | 64,453125
-1,2084961 | 56,900024
-0,9063721 | 44,51294
4,8339844 | 42,800903
0,10070801 | 34,94568
8,358765 | 28,29895
6,7474365 | 38,269043
-2,5177002 | 32,025146
10,876465 | 31,118774
2,3162842 | 31,723022
-1,5106201 | 24,975586
-8,157349 | 20,24231
-0,30212402 | 15,408325
-3,3233643 | 15,005493
-12,185669 | 8,056641
-5,4382324 | 2,5177002
-8,358765 | -11,279297
-5,7403564 | -30,917358
-1,5106201 | -50,55542
-2,5177002 | -68,78357
-0,40283203 | -71,40198
-0,80566406 | -84,2926
-0,20141602 | -70,999146
0,10070801 | -22,558594
3,7261963 | -10,070801
0,9063721 | -22,155762
0,80566406 | -15,307617
0,40283203 | -9,667969
-2,9205322 | -18,328857
-3,7261963 | -35,046387
-3,5247803 | -46,42639
-0,30212402 | -35,046387
3,2226562 | -20,24231
6,4453125 | -10,574341
0,30212402 | -10,473633
-4,4311523 | -10,775757
-9,265137 | 2,5177002
-5,7403564 | 7,4523926
-8,157349 | 5,5389404
-4,3304443 | 10,775757
-6,5460205 | 21,75293
5,3375244 | 31,018066
-0,50354004 | 40,786743
-0,50354004 | 45,822144
-6,8481445 | 40,081787
-2,1148682 | 43,707275
0,70495605 | 35,85205
-1,9134521 | 35,147095
-5,7403564 | 17,019653
2,3162842 | 13,494873
-0,9063721 | 2,3162842
10,372925 | -8,358765
4,8339844 | -20,544434
-2,5177002 | -21,24939
-4,1290283 | -10,372925
-11,782837 | 11,682129
-10,171509 | 49,246216
-7,0495605 | 59,317017
-8,660889 | 51,05896
-12,991333 | 21,652222
-15,005493 | 2,9205322
-12,387085 | -5,8410645
-3,5247803 | -23,26355
-7,9559326 | -38,067627
-10,372925 | -58,71277
-4,8339844 | -68,481445
-7,1502686 | -67,67578
0,20141602 | -64,65454
-0,70495605 | -69,08569
-5,0354004 | -65,05737
-4,6325684 | -55,18799
-4,8339844 | -25,076294
-5,0354004 | -15,005493
2,2155762 | -17,926025
-5,2368164 | -24,371338
-8,761597 | -35,34851
-6,7474365 | -33,535767
-8,258057 | -27,593994
-7,9559326 | -25,881958
-4,1290283 | -24,069214
-9,466553 | -10,977173
-6,0424805 | 2,1148682
-11,178589 | 26,28479
-2,3162842 | 37,261963
-3,0212402 | 34,039307
-4,0283203 | 36,154175
-0,50354004 | 40,283203
0,40283203 | 32,528687
-1,9134521 | 29,003906
3,0212402 | 31,82373
2,3162842 | 50,05188
-1,6113281 | 67,57507
-1,7120361 | 79,2572
-2,5177002 | 70,59631
-1,4099121 | 52,670288
-1,9134521 | 33,032227
1,3092041 | 16,516113
-6,8481445 | -1,6113281
-8,560181 | -7,0495605
-6,2438965 | -17,422485
-2,0141602 | -27,694702
-2,7191162 | -31,723022
-6,0424805 | -41,39099
-2,9205322 | -50,253296
-5,3375244 | -55,892944
-7,3516846 | -64,65454
7,3516846 | -64,75525
-8,258057 | -61,834717
5,5389404 | -60,827637
-2,0141602 | -48,239136
-2,0141602 | -34,240723
-2,3162842 | -34,039307
-4,7332764 | -57,504272
0,50354004 | -82,07703
1,3092041 | -90,234375
-1,9134521 | -80,26428
0 | -73,41614
-3,2226562 | -75,83313
1,3092041 | -65,963745
-0,50354004 | -34,94568
-3,3233643 | -15,106201
-8,862305 | 62,74109
-9,063721 | 154,6875
-8,358765 | 197,79053
-5,0354004 | 186,41052
-10,977173 | 122,561646
-5,7403564 | 25,680542
-6,6467285 | -64,85596
0 | -128,50342
-1,1077881 | -168,28308
-0,10070801 | -190,84167
-4,3304443 | -206,25
-1,7120361 | -217,5293
-2,3162842 | -242,10205
-2,2155762 | -258,11462
2,1148682 | -255,89905
-0,30212402 | -247,03674
-3,9276123 | -248,14453
-2,0141602 | -192,85583
-4,0283203 | -111,68518
-4,7332764 | -83,688354
-1,1077881 | -63,848877
-7,7545166 | -35,147095
2,3162842 | -4,9346924
-0,70495605 | 63,546753
-1,5106201 | 168,08167
-8,761597 | 220,24841
1,3092041 | 239,98718
-8,157349 | 237,87231
-8,560181 | 191,34521
-7,3516846 | 78,652954
-3,8269043 | 8,862305
0,80566406 | -19,940186
-10,675049 | -54,382324
-5,4382324 | -103,427124
-3,4240723 | -135,04944
-7,1502686 | -155,896
5,8410645 | -168,5852
1,3092041 | -163,65051
5,4382324 | -104,03137
6,8481445 | 50,55542
-0,20141602 | 289,53552
-1,5106201 | 454,99878
-7,3516846 | 479,2694
-15,206909 | 435,76355
-16,113281 | 386,1145
-10,171509 | 356,20422
-14,099121 | 298,90137
-22,055054 | 264,55994
-17,422485 | 245,02258
-5,9417725 | 208,96912
-15,206909 | 229,11072
-1,9134521 | 234,34753
0,30212402 | 196,78345
-0,9063721 | 139,5813
-3,9276123 | 80,667114
-2,4169922 | 49,145508
-4,5318604 | 29,30603
-2,4169922 | 22,961426
-3,3233643 | 4,9346924
-5,2368164 | -7,7545166
-1,4099121 | -14,401245
-0,9063721 | -30,111694
-2,0141602 | -38,571167
-9,164429 | -53,475952
1,8127441 | -55,892944
5,2368164 | -58,007812
-1,1077881 | -58,309937
-1,5106201 | -73,013306
6,9488525 | -70,29419
-0,70495605 | -67,474365
2,5177002 | -63,345337
-13,293457 | -75,93384
1,8127441 | -77,34375
1,3092041 | -63,949585
0,80566406 | -67,977905
-5,1361084 | -73,11401
-5,7403564 | -64,05029
-1,1077881 | -52,871704
-1,0070801 | -40,38391
0,70495605 | -28,80249
-1,5106201 | -8,157349
-6,7474365 | 4,1290283
-4,1290283 | 15,509033
-4,2297363 | 15,710449
-1,0070801 | 4,6325684
-7,1502686 | 5,0354004
3,0212402 | 7,7545166
-4,0283203 | 2,6184082
-7,8552246 | 0,40283203
-4,3304443 | 5,3375244
0,30212402 | -4,5318604
-1,5106201 | -24,069214
-1,1077881 | -29,003906
-6,3446045 | -33,43506
-1,9134521 | -40,182495
1,7120361 | -51,663208
1,7120361 | -62,338257
-4,4311523 | -65,15808
-7,5531006 | -52,166748
-15,106201 | -0,9063721
-2,9205322 | 30,514526
0,10070801 | 14,804077
1,5106201 | -19,335938
-2,8198242 | -28,29895
-1,5106201 | -32,730103
-0,10070801 | -43,203735
-1,6113281 | -60,12268
1,3092041 | -65,05737
-2,9205322 | -79,156494
-5,5389404 | -71,20056
-2,4169922 | -79,660034
-0,60424805 | -70,3949
-7,0495605 | -67,57507
-1,8127441 | -59,921265
-4,4311523 | -53,67737
-9,567261 | -46,627808
2,3162842 | -43,304443
1,8127441 | -32,025146
-5,9417725 | -10,876465
-2,7191162 | 6,7474365
-1,9134521 | 20,040894
-2,2155762 | 28,29895
1,8127441 | 16,918945
-8,560181 | 13,092041
2,6184082 | 13,796997
1,3092041 | 15,005493
-1,3092041 | 10,876465
0,50354004 | 20,645142
2,5177002 | 18,22815
-3,2226562 | 26,989746
0,50354004 | 19,033813
-4,3304443 | 2,0141602
-1,5106201 | 7,7545166
0 | 2,3162842
-9,063721 | -3,3233643
-5,9417725 | -11,782837
-5,2368164 | -20,24231
-3,9276123 | -31,219482
-0,70495605 | -23,062134
-1,2084961 | -23,26355
-3,5247803 | -33,737183
1,3092041 | -50,656128
5,4382324 | -65,76233
2,5177002 | -68,58215
-2,1148682 | -87,61597
2,8198242 | -103,22571
-11,077881 | -99,19739
-2,8198242 | -98,89526
-5,2368164 | -78,35083
-3,1219482 | -27,090454
-3,0212402 | -1,3092041
-0,20141602 | 3,2226562
-12,185669 | 4,3304443
-8,560181 | -6,2438965
3,2226562 | -12,185669
-4,6325684 | -10,171509
-4,6325684 | 5,7403564
6,2438965 | 6,5460205
-3,5247803 | 13,998413
-6,0424805 | 16,012573
-5,9417725 | 19,436646
-4,1290283 | 13,796997
-4,1290283 | 18,22815
0,50354004 | 22,659302
2,6184082 | 24,169922
-5,9417725 | 29,104614
-2,7191162 | 12,588501
-3,3233643 | 10,372925
5,7403564 | 24,673462
2,0141602 | 30,413818
-6,2438965 | 29,608154
-5,7403564 | 38,36975
1,9134521 | 41,189575
-4,1290283 | 30,917358
2,9205322 | 26,889038
1,9134521 | 26,687622
5,5389404 | 16,415405
5,4382324 | 0,30212402
9,466553 | -14,904785
5,2368164 | -39,276123
5,7403564 | -38,067627
-2,0141602 | -47,03064
3,2226562 | -54,68445
-0,50354004 | -50,253296
-1,1077881 | -47,43347
2,4169922 | -57,000732
1,2084961 | -61,935425
2,8198242 | -60,021973
-4,1290283 | -60,22339
-1,2084961 | -68,28003
-1,4099121 | -69,79065
-3,4240723 | -70,79773
-1,2084961 | -60,62622
-3,4240723 | -50,454712
-2,9205322 | -5,9417725
-3,9276123 | 29,507446
-5,8410645 | 20,141602
-3,5247803 | 12,588501
-3,7261963 | 11,077881
-4,1290283 | 12,890625
-3,7261963 | 12,185669
-9,567261 | 19,335938
0,10070801 | 23,062134
-2,5177002 | 25,78125
-2,1148682 | 20,947266
2,5177002 | 21,551514
-1,4099121 | 26,889038
-6,3446045 | 30,615234
-4,8339844 | 21,24939
-4,2297363 | 33,33435
-2,4169922 | 18,933105
1,7120361 | 13,494873
2,3162842 | 13,998413
-0,10070801 | -11,480713
-2,8198242 | -24,874878
3,4240723 | -9,970093
1,2084961 | 11,984253
-5,2368164 | 12,387085
-13,998413 | 2,1148682
-10,574341 | 8,660889
-12,890625 | 10,171509
-13,998413 | -1,4099121
-13,494873 | -30,010986
-9,265137 | -26,889038
2,7191162 | -1,4099121
-3,0212402 | -0,50354004
-0,10070801 | -29,205322
2,1148682 | -55,69153
-0,20141602 | -63,24463
-4,4311523 | -81,47278
-1,3092041 | -95,5719
0,80566406 | -106,8512
-2,9205322 | -121,051025
-10,977173 | -141,09192
-7,7545166 | -143,4082
2,0141602 | -136,15723
-2,5177002 | -126,28784
-4,3304443 | -136,96289
-0,10070801 | -142,099
-4,7332764 | -129,30908
2,5177002 | -139,07776
-2,0141602 | -139,682
0,50354004 | -134,84802
